-0.000426048379932036,-0.000791902798833103,0.00063825376373092,-0.000668129139010612
-0.00729684774697545,0.0030952000230758,0.00502271164731421,-0.000629883420085327
-0.0126702860719529,0.0119081006444104,0.006474532930082,-0.000475028198030492
-0.0133002274352375,0.0225816589957221,0.00543003391494398,-0.000395172150745941
-0.010261915426009,0.0287859772682122,0.0052224361226974,-0.00045207197141447
-0.00733200088042965,0.0278313957519141,0.00490357711940995,-0.000350753785635256
-0.00644795517139101,0.0256435003380268,0.00415531726281917,5.6793299798465e-05
-0.00651936132823332,0.0247986858352946,0.00474352094376076,0.000835468601751661
-0.0053695160181944,0.0212361267670441,0.00559796042002399,0.00213986527911753
-0.00312576748633815,0.014372548177416,0.00293465916758487,0.0036200099799942
-0.00134410937377612,0.0038983687924065,-0.00211327511869474,0.00423333708187365
0.000159563133350528,-0.00928621142941826,-0.00491159560297154,0.00311573944140963
0.00146320377833626,-0.0179997519058684,-0.00701562020411669,0.000580942929181331
0.00229962180915871,-0.0172171936613778,-0.010287883037189,-0.00220908974924038
0.00238104350975806,-0.0129788468512093,-0.0129851392497284,-0.00422300710242461
0.00160981771781887,-0.0134473679060237,-0.0140574040773401,-0.00501108381640234
0.00245879667527863,-0.0158783463868796,-0.012054557651904,-0.00471096609978764
0.00590084349134334,-0.014892009552123,-0.00766740001383513,-0.00353808655944945
0.00919594703464618,-0.0121431152725614,-0.00517070396652255,-0.00150465379762484
0.00976189865050617,-0.00994768178419074,-0.00442565740982411,0.000906697812787348
0.00762438723877316,-0.00876497450131115,-0.00129932621799021,0.00269701181784841
0.00409495587166562,-0.00684019060163565,0.00302200870094565,0.00345099989351753
0.000550558706932149,-0.000331735122472681,0.00581287811043151,0.00342564089083274
-0.00241649230722057,0.00474997312775258,0.00692926382215445,0.00285223122957687
-0.00724114316812308,0.00102520584118194,0.00607883946546683,0.00182328603144542
-0.0141496459993595,-0.00902054521371039,0.00406184999291862,0.000412890508220495
-0.0195630326084594,-0.0210296467467083,0.00248470332458312,-0.000974912522050843
-0.0204960899792632,-0.0259978612649315,0.00160587637224374,-0.00167962549973822
-0.0175005085570625,-0.0181699136623965,0.00172055197827125,-0.00162485810344373
-0.0114539627906038,-0.00830636372398815,0.00194265516616505,-0.00121737407518641
-0.00280385862425814,-0.00706914683935471,-0.000289657009171345,-0.000799789048745336
0.00333626667593813,-0.007886690132942,-0.00438339323816511,-0.000659634094652317
0.00539431055527711,-0.00432593299988824,-0.0070820327115563,-0.000789517454269809
0.00799448366669504,-0.001058006377192,-0.0072208725119501,-0.000690319808024276
0.0117756963257742,0.000392655719844356,-0.00678173997199919,9.40730750638257e-05
0.0134061096634654,0.00137687163995159,-0.00593768878196685,0.00120396662955271
0.0110068349839958,0.0021201646713638,-0.00564817873491774,0.00184220509282315
0.00754150145062547,0.00301218145492384,-0.006072768369197,0.00171994652955035
0.00615052010495354,0.00206799032045927,-0.00458724461659786,0.00117664318303556
0.00555230567241576,0.000133057402849657,-0.00411950458680562,0.000514353644323048
0.00332093683533394,-0.0019438812916455,-0.006359998342409,-0.000443209708724669
-0.00322174859430828,-0.00373011008501288,-0.007171158034217,-0.0016027322265212
-0.012649790711689,-0.00252281462963051,-0.00479466481319885,-0.00232445682676218
-0.0187690638130365,-0.000373736569462112,-0.00134619412627007,-0.00236612349340581
-0.0194564991829743,0.000519912339639363,0.00137183681764056,-0.00203575640898053
-0.0144135513573929,0.0049733305928218,0.00411806134744523,-0.00146024219917771
-0.00330521987461661,0.0147204535475931,0.00737948726213331,-0.000329702258937295
0.0064437008337017,0.0217237361290604,0.0100392140496268,0.00143021230039775
0.007577046349141,0.0194565304200161,0.00940075173322375,0.00283051540194487
0.00121350543615356,0.0111068430455286,0.0048824916341223,0.00283799506122999
-0.00725121509025797,0.00539036379798461,0.00114488978357613,0.00176142793185712
-0.0109474237531351,0.00505907071127914,0.00137427895248848,0.000635851054676504
-0.00739606835116119,0.00758334588560468,0.00397298263939416,0.00012348171060985
0.00200506575348902,0.0122765387247666,0.00698424503577889,0.000312301562701361
0.0134433367075301,0.014644907072194,0.00926348750321936,0.000897134106692164
0.0194315472968352,0.0103016893264265,0.00825155533755835,0.00112777734716227
0.0165079873543447,0.00431077845910814,0.00493800634644406,0.000525734294651357
0.00829514797163635,0.00150108973350441,0.00272382534004269,-0.000648555906676
0.00267702806982381,0.00103150048247987,0.00218393928900392,-0.00187620471102268
0.000263015511371888,0.00175498784720797,0.00244577673559021,-0.00251304672703691
-0.00347773744013024,0.00362464453053883,0.00176995434801056,-0.00232421744603222
-0.00410659573405199,0.00725078148045923,0.00205039144230715,-0.00181007329368141
0.000633741530442699,0.0122534769298317,0.0054496151596312,-0.00125599457556976
0.00456811010232324,0.0175589634233569,0.00819764121941183,-0.000452109497322163
0.00296365123471627,0.0183407025614643,0.00820370797374319,0.000428099697691965
-0.00181110337711615,0.0103914240461789,0.00567410036409098,0.000920123837402342
-0.00366207130022075,0.000557641694104254,0.00216346071582461,0.000781908569954332
-0.000805423901086365,-0.00305457153614015,0.00223833337935741,0.000115545404038796
0.00556805247948056,-0.00147768258398636,0.00560857305325789,-0.000361389199656775
0.011921850013639,0.000951103592242956,0.00810293604488733,6.10048608105221e-05
0.0107847921355112,0.00349239617722071,0.00842329766997242,0.00104527567837229
0.0048315277441205,0.00522091436593853,0.0074802695206329,0.00147100143513239
0.00536597088932475,0.00200450678564629,0.00640184007838787,0.000975003211903361
0.00913943853186989,-0.00348161777896281,0.00627814038243478,0.000466341675578135
0.00786455339754555,-0.00441762260766445,0.00524571880184548,0.000441753632813886
0.00590881573913935,-0.000771220377454723,0.00180161078947139,0.000204548870804174
0.00812321367567576,0.0031590579012205,-8.30916715919491e-05,-0.000619030591957537
0.0102226207904098,0.00344675687128277,-6.55901304024318e-05,-0.00141370834875548
0.00793356649470222,0.00117624809777103,-0.00122694293502828,-0.00178620666257143
0.00240324054830921,0.00158298993495561,-0.00227352747421442,-0.00181670085760528
-0.00390128956807826,0.00402595512573689,-0.00220872547026081,-0.00147224003368461
-0.00597546761927332,0.003212004878789,-0.001851790814635,-0.00098460135382679
-0.00115749377147845,-0.00088299415181655,-0.00121734588450554,-0.000728072794938052
0.00601680876683991,-0.00557111193827053,-0.00109817797238108,-0.000641106259391707
0.0112820779223235,-0.0083001670249394,-0.00128255792635686,-0.000475701152626288
0.0133186911420799,-0.00233183590017667,0.00198813767122432,-8.7811648688727e-05
0.0126843783368299,0.00863209502912371,0.00760607826032055,0.000774120499320195
0.0108661258863718,0.00941039355938772,0.00953451816528884,0.0021684401340375
0.00906729684287044,0.00118473092807005,0.00873143013054899,0.00355029062086957
0.00786311412341926,-0.0048409189187657,0.0077934078680286,0.0045776161250669
0.00518668547721391,-0.00702337508736171,0.00458834589551007,0.00482635892005475
0.00142409953140173,-0.00592357078860608,0.000966083861052118,0.00351826123610868
-0.000712348642547813,-0.00192882387094501,-5.97443349747359e-05,0.00109584911877324
-0.000814902338998544,0.00177116641694109,-0.00160864031281432,-0.00109941021589388
-3.50054942971287e-05,0.00390629895171239,-0.00416682657034626,-0.00222514504647349
-0.00197554577355986,0.00220445978504531,-0.00603222422763254,-0.00232915985683326
-0.00537255918538692,-0.00447011065344236,-0.00845133111401036,-0.00215019639104417
-0.00413063939653548,-0.0085726282738077,-0.00980076288131893,-0.00226283119395034
0.000849724681710445,-0.00673765302520877,-0.00852271925980595,-0.00245475245238942
0.00606673171727433,-0.00648591906901058,-0.00697805188421282,-0.00214706477663738
0.0107875847305789,-0.0105643646286305,-0.00831889803715091,-0.00130407056852142
0.0127650958822915,-0.0114609648901565,-0.010524801936526,-0.000374367061064428
0.0122348289264016,-0.00606324533722274,-0.00957292412063441,0.000264991088381564
0.011335716130154,-0.00182692028530504,-0.00815309069612042,0.000631418837954668
0.00994565588320068,-0.00139359650234605,-0.00817131659820254,0.000990090471609631
0.00820961248569955,-0.000803287319452674,-0.00722296189200199,0.00126297958009571
0.00706970751573476,-0.000391820871219442,-0.00564891583919314,0.00126311285901659
0.00333392832614374,-0.00215079173743928,-0.00474021272957579,0.00121645278286137
-0.00416404208452835,-0.00457709936490198,-0.00426097947284023,0.00125240610743869
-0.00834344451960396,-0.00162074489344396,-0.00383354524725208,0.00133270029501316
-0.00725953541171743,0.00637541175996009,-0.00434545139463469,0.00151855929631303
-0.00716596179915783,0.0108389647477045,-0.00623569196428273,0.00147724494411865
-0.00899954156090654,0.00907980142270754,-0.00785903617984563,0.000834196316480436
-0.00809019844492658,0.00422557389152525,-0.0082255584040487,0.000163070206662916
-0.00521030278034327,-0.001796052163686,-0.0077620974174324,0.0002040238462277
-0.00193598910365041,-0.00831330333342687,-0.00782953737771189,0.000764480362759121
0.00254095753015464,-0.0128712367884854,-0.00828471392350631,0.00106351902965294
0.00661072425989372,-0.0143578813683861,-0.00818141537615948,0.000342812295560432
0.00915892034436914,-0.012527054357925,-0.00793587877411205,-0.00126748410717975
0.00974966334966884,-0.0081790912322008,-0.00918756640830693,-0.00274006693609853
0.00807785929739788,-0.00465695665621803,-0.0117061315569015,-0.00335329515614462
0.00455019035173073,-0.00514239125272458,-0.0113934417508534,-0.00316077609997404
0.000477882573011068,-0.00911062706626607,-0.00757265060746465,-0.00251683793831102
-0.00325224937960147,-0.0115374313672995,-0.00453624446303403,-0.00177057559860369
-0.00674160344767676,-0.00992430950104863,-0.00317817256103346,-0.00124129195216361
-0.00899501602176291,-0.00535425986846229,-0.00233643986568813,-0.000937708193404162
-0.00971532443705912,-0.000320578123213133,-0.00329926625859565,-0.000777321003040343
-0.00959664613537865,0.00218234022479352,-0.00557992362887373,-0.000650963547618512
-0.00873042827179237,0.00290648272351325,-0.0069112861445457,-0.000153061713288571
-0.00744954435537715,0.00298923063347289,-0.00715315032645477,0.000639598072977193
-0.00554522060991352,-0.000602587754252619,-0.00766473318402771,0.00128321822186403
-0.000667679920977826,-0.0054741706309447,-0.00871249313559709,0.00172780896073696
0.00644064466936816,-0.00722031790499306,-0.00904083921744897,0.00208215318305374
0.00922394798256608,-0.0102319625582227,-0.0090677540510192,0.00213892565070988
0.00695950280368795,-0.0153954572357622,-0.00948144906740175,0.00153738896590541
0.00696671393243709,-0.016088615512493,-0.00929495231091169,0.000438435195473147
0.0097872759917254,-0.0107170797148513,-0.00926719277373559,-0.000418882475682836
0.0105771983723603,-0.00110566188198762,-0.00931510159852508,-0.000500761153990057
0.00862977967526786,0.00756263251824488,-0.0080304285338665,-0.000207858571189127
0.00549646740278003,0.00981095078466251,-0.00780178194461992,-0.000109394241031628
0.00181368605834419,0.0121439063208827,-0.00896116190884827,-0.000290596182823807
-0.00341358084582097,0.0191445363277115,-0.00698749374773485,-0.000782999629492319
-0.010098705262854,0.0204522488538577,-0.00150566126399193,-0.00151699149163687
-0.0154686986322717,0.00897465988191507,0.0022261596017545,-0.00211549101277472
-0.0166543736058574,-0.00729027091711639,-0.00056332078474941,-0.00228342680563248
-0.0138805557649753,-0.0190942294399577,-0.00566565981579446,-0.00216047013560854
-0.00990272904390929,-0.0233816950633297,-0.00449607089949284,-0.00169800357226624
-0.00615779581240386,-0.022539452849067,0.00271112591120176,-0.000461958268874844
-0.00232252160034849,-0.0240413824998792,0.00972132325080628,0.00155467355466416
0.0016649642468829,-0.0280584019419084,0.0110571505197661,0.00363798619388109
0.00447213566275846,-0.02651403776848,0.00779841883941952,0.00484997078539883
0.00357305898379209,-0.0174990758486575,0.00549932110813013,0.00478575179363781
0.000154518609934868,-0.00354392373308738,0.00405153179498996,0.00374728534014881
-0.00133883408755374,0.00949402153145234,0.00173428288172476,0.0022529790067435
0.000681921851593869,0.0122297924752789,-0.00184298061807058,0.000952319419185487
0.00342479967468379,0.00613674869794314,-0.00592316943326009,0.000172834097680475
0.00468418300333613,0.000549945191319081,-0.00851661533228635,-0.000511315602257531
0.00686337756346903,-5.2555241394842e-05,-0.00981202392207623,-0.00117812865197666
0.00958040492346714,0.00207319799659078,-0.00882818823011852,-0.00136726383488274
0.00909341629030521,0.00388346749637366,-0.00477394668665305,-0.000909927605381972
0.00515905261968601,0.00575525259939373,-0.00112813384770834,-3.81358618703801e-06
0.000869444435558414,0.00624415196286518,-0.000376061998101301,0.000812961061039805
-0.000387937363915973,0.00431148417989747,-0.000756790118974658,0.000987615694197684
0.00100530066191826,0.00243415052306542,-0.00152180971338658,0.000290118966595433
0.0014587938532001,0.00543898899310048,-0.00253889643263911,-0.00104138882526548
-9.01148673535107e-05,0.0130876537400521,-0.00464112978754403,-0.00219211875940709
-0.00110556474235286,0.0106933252582292,-0.00893375186147204,-0.00247680277059097
-0.00293017276995125,-0.00414939244467838,-0.0119188322178576,-0.00200697686235705
-0.00777729715038401,-0.0117717648746181,-0.010042605736868,-0.00112469871755912
-0.0101941431867398,-0.00690767828498619,-0.00381238302768392,-7.92792734222413e-05
-0.00620342815519331,0.000996996031248868,0.00279898955112882,0.00113143959937161
-0.000236517329241554,0.00702672871141099,0.00635409482222454,0.0026722356305462
0.00360940733622207,0.00659910645997548,0.00577186044322947,0.00391296104803682
0.00653383053832887,-0.00598937141152863,0.00323319349880079,0.00397908372819152
0.00839007658039114,-0.0307312033593781,0.00272783574690498,0.00277133500708225
0.0033568033928802,-0.0525637641642351,0.0053396613966898,0.000926499241266419
-0.00788939895623263,-0.0479978616628497,0.00938989811467938,-0.000641177118824142
-0.0134833696398075,-0.0178899674769615,0.0114941104564377,-0.00129733064692437
-0.00892888804117028,0.0102977608231932,0.0124837405128825,-0.000912956306423551
-0.00055752020731021,0.0180354956127056,0.0133249869958445,0.000144395078803909
0.00653335819482012,0.00759157431239484,0.00904079259042171,0.00122469502186701
0.0115642170095434,-0.00784093386725006,-0.000630041039807551,0.00137637351441579
0.00978730745332964,-0.0158460939778329,-0.00836458982669851,0.000113097759031759
-0.000535293451013048,-0.0127017836109152,-0.0093235223723905,-0.00183349919812065
-0.00882114910852988,-0.00246458473119126,-0.00571877895770177,-0.00317044466263844
-0.0107315233577828,0.00908463671724867,-0.00240106597668131,-0.00318441688100949
-0.00998087771811035,0.0168158603423074,-0.00202494384916433,-0.00238818153112295
-0.00776432017603806,0.0183767803593684,-0.00136791601621413,-0.0016429147567478
-0.00488582841600204,0.0147666903302227,0.00152968654165342,-0.00131334061799924
-0.00134749254459624,0.00503514149707313,0.00286039383571218,-0.00121751295543669
0.00324423479249624,-0.00605483951324742,0.00187010426633235,-0.000852254498529715
0.0055181734574681,-0.0113821054425272,0.00148925892297108,-4.35662460602216e-05
0.00450424609060656,-0.0142844167766084,0.00136737427780488,0.000885234691625223
0.00357454517435949,-0.0181304818380946,0.000104474188287812,0.00138147459802591
0.00236857687876892,-0.0197453373053506,-0.000205306734221869,0.00115021657878541
0.00208509832410204,-0.0188671079523443,0.000647937336438472,0.000571218470908183
0.00435006943377521,-0.0179655986660487,0.00104509149032077,0.000344253152812685
0.00345656429757694,-0.0174744781949332,0.001045646633676,0.000535434001548478
-0.00226585698830336,-0.0145126537240301,0.00223775468283924,0.000641409472023316
-0.00718071822948266,-0.00408838670110834,0.00578784601150008,0.000740812113676161
-0.0076232369264994,0.00913191881260998,0.0102776526197889,0.00115941891333471
-0.00315940253594809,0.0130465487168018,0.011774148208308,0.00167406101588359
0.00156805771429573,0.00780485898445288,0.0101276455935999,0.00172693266024047
0.00149203441487424,0.00202325313896995,0.00889584955846531,0.00110290444963767
-0.00273402874493717,0.000810348546138047,0.00821870505706991,0.000178757544194471
-0.00896640074436868,0.00466234958292104,0.00831745756761578,-0.000693451333612306
-0.0154481882028484,0.0089265237078487,0.00936776040319559,-0.00131870550068117
-0.0201944490341436,0.00880984234776197,0.00903799529846653,-0.00154490095865356
-0.0214120917341107,0.00266881149771731,0.00481233247011308,-0.00147799021457015
-0.0193637446126953,-0.00480273693494274,0.000346202925826428,-0.00137118725467632
-0.0176725693217011,-0.00739741348685468,-7.27477741152864e-05,-0.00139702573772131
-0.015539722358334,-0.00624669321499525,-0.000427211387281692,-0.00142547889839154
-0.00400426628012496,-0.004675359743715,-0.00221295620576712,-0.00110870575274647
0.0182727858212607,-0.00249631981927776,-0.00235179775059412,-0.000449224979884141
0.0391302935501144,0.001349608877097,-0.00121610193111093,0.000182874934872034
0.0457699039988696,0.00921424635308255,0.0010414873095003,0.000613295321143564
0.0303667724845369,0.0214441746255835,0.00422779229088951,0.000926751696885661
0.00149851429321537,0.02982260887679,0.00455603796859535,0.000763907230630235
-0.0197440225498167,0.0296963923670119,0.00192418750444447,-0.00029409550170313
-0.0238382509077103,0.0267986250639344,0.00147005374110242,-0.00186599077279777
-0.0152430489682093,0.023669374414135,0.0036779610253169,-0.00304081516612324
-0.00356944257033936,0.0177433200034224,0.00248065528999537,-0.00326984264269261
0.00274020959530505,0.00938203009689394,-0.00152640581330897,-0.00302124867412915
0.000302801699230103,0.000157347742360994,-0.0027984512372428,-0.00273388120830861
-0.00704023179544974,-0.00851121653716079,-0.00293229763201056,-0.00228701100471695
-0.0116147224097001,-0.0134056864430396,-0.0035591007074186,-0.00156994727483273
-0.0106292124197475,-0.0122328171622348,-0.00226939912232899,2.65244137276441e-06
-0.00581640357296114,-0.00666191897018412,-0.00028148902387976,0.0027572296667772
0.00174691994652867,-0.00180683222233835,0.000580315916897741,0.00541180299709087
0.00842837866278635,-0.0010691221523888,0.000584629159643717,0.00603199833768543
0.0100134053485964,-0.00163150606542479,-0.000472949123168503,0.00393714700071858
0.00750429004192797,0.00167316568440232,-0.000525128065730478,0.000600120384854446
0.00237401600846324,0.00899678469815621,0.0010785941011896,-0.00201022923064173
-0.00303084589680429,0.0154868144077113,0.000642918360402877,-0.00343088247903858
-0.00473783041231972,0.0165219885861297,-0.00333548049148258,-0.00407093984536615
-0.00201769272367254,0.0115922501780209,-0.006710687075955,-0.00432605954027996
0.00333031815343379,0.00646015663925582,-0.00564716539069077,-0.00439729565144978
0.00770720318662818,0.000199617633166015,-0.00272127933480631,-0.00411966291186143
0.010257415236133,-0.0129675830070626,-0.000809681632608184,-0.00329818726170901
0.0137593951906606,-0.0233687672399219,-0.000252629181816783,-0.00182805352506077
0.0158317950194631,-0.0240735082300542,-0.00235050828274052,4.18448427009451e-05
0.0103743843635914,-0.019200342225637,-0.00443868298806041,0.00146196789822009
-8.59113180304884e-05,-0.00716960396884311,-0.00338445866561371,0.00178752148397951
-0.00700806235843967,0.00848830516254151,-0.00165177740320325,0.00117111170169587
-0.0112466126902843,0.0165468054534292,-0.00219383056963175,0.000389137750194622
-0.0149041094836656,0.0131236073197708,-0.00496199125869852,-2.84833435433068e-05
-0.0128246324513373,0.00654089356686881,-0.00672810543109203,-0.000244737070860293
-0.00598664721944224,0.00430326797510919,-0.0055634307715667,-0.000377693585608465
0.000727564339199092,0.00314428068363895,-0.0027087697779983,-9.58416570801378e-05
0.00645484150778343,-0.00107913673620681,0.000109946629277965,0.000709326029225602
0.00865203245201542,-0.0071640509684362,0.000799881241846862,0.00164473404782325
0.00647319547518626,-0.0102694896082352,-0.000124935756815726,0.00224905188065384
0.00323107660761556,-0.00799671664373425,-0.000230139115217388,0.00230528194834486
0.000490222753666165,-0.00418828339377783,0.000326312055653795,0.00206793881882328
-0.000566898256168751,-0.00358170600665552,0.000166774220662062,0.00180386874386065
-0.000398004263684093,-0.00576435720323711,-8.80445722090123e-05,0.00141467986697897
-0.000929202654633982,-0.0080790320385895,0.000867930484735908,0.000971471737683644
0.000330970054643009,-0.0104592370411343,0.00136113037357335,0.000832491199481672
0.00531675022413764,-0.0112112018531607,-0.000712592511901564,0.000857946786597037
0.00961479208914158,-0.00996317497307529,-0.00335391757864598,0.000631821570643647
0.00851625783402795,-0.00874996023544591,-0.00453053972484705,4.47784441467407e-05
0.00398257375263911,-0.00868868588099608,-0.00639636158230199,-0.000780566563537574
0.0011982174785353,-0.0103126168891762,-0.00868745159059926,-0.00137508820282536
0.00208127206851983,-0.00818546816123478,-0.00831715755178897,-0.00130523514589579
0.00474570167313779,-0.000469676658040137,-0.00561303872431739,-0.000603176127727272
0.00655315473929912,0.00548738116786948,-0.00249103813963117,0.000531698711963263
0.00672675942104455,0.00534372884780551,-0.00127589550400733,0.00159193425141108
0.00636817303019202,0.000136393693833897,-0.00345013937586055,0.00161351411075686
0.00443722226119012,-0.00481061365897484,-0.00601686762085434,0.000347230332452745
-0.000477841545473778,-0.00356626361869637,-0.00343659663211343,-0.00100730247213176
-0.00487716960462383,0.0018056700172452,0.00260761491767339,-0.00105319229722319
-0.00707106388940101,0.0061218841192169,0.00519201577244794,0.000146688050517499
-0.00532139968901659,0.009219697359268,0.00422757638035377,0.00148657484016722
0.000380178530536258,0.0109172575572355,0.00265283122887917,0.00258495021665062
0.00211167594382211,0.00634731172081736,0.00137664852972282,0.00347346078387821
-0.000247394268155483,-0.00336789019268408,0.000228963127801644,0.00376370605149178
0.000642337249174732,-0.00878112361164408,-0.00214845549466239,0.00356875976846841
0.00339969309943543,-0.00882550117766505,-0.00526076924897673,0.00322158971109554
0.00321951107799207,-0.0104103043601888,-0.0061184432370358,0.00268021438922186
0.00181301691762317,-0.0142100667320393,-0.00301090679115415,0.00154007851170585
0.00230436033709943,-0.0162586449302569,0.000528182620632858,-0.000647552099481751
0.00607142924996856,-0.017980619681325,0.000701216388166831,-0.0029681073925007
0.0112665258773422,-0.0218392236224997,-0.000702609787396272,-0.00407282453973847
0.0105804966229447,-0.0242430653429843,-0.000892254455585676,-0.00380469080043746
0.0032789674550112,-0.0214062900830664,0.0001327212401189,-0.00279682491885086
-0.00222177079174486,-0.013599278721946,0.00116231276334319,-0.00174264292894213
-0.00180174919812797,-0.00289271084736931,0.00142103413193738,-0.000842627932783325
0.00164852006420966,0.00821127735574204,0.00210975798225654,-6.81413439980621e-05
0.0035765901002997,0.0170871888790754,0.00460048350146308,0.000462271925625059
0.00192426960261349,0.0221428061439209,0.00767180768326083,0.000784367054283741
-0.00178518364051632,0.0266215431331295,0.0102450281200752,0.00103810543558137
-0.00420370869281095,0.0293143411211363,0.0127354501046875,0.00123804979073137
-0.00343214368887514,0.0218158874996782,0.0136226426074066,0.00137966046883113
-0.00161597592479082,0.00780213537874913,0.0111738496259585,0.00131445214970164
-0.00195534343497902,-0.00184408404047516,0.00672639645449639,0.000922668714728259
-0.00213362100028608,-0.00590509118693648,0.00302730497057166,0.000375704492474967
0.00248598260103065,-0.00869603541460302,0.00277684552870142,-2.07858627076479e-05
0.00909838275808096,-0.0110390668503897,0.00366564881989424,-5.99872770888546e-05
0.0104834133411672,-0.0114297823201493,0.00196147416489958,-9.09441587492279e-06
0.00604634129936966,-0.00903718796604383,-0.000574175764134603,-0.000494004043451327
0.00163808810189068,-0.00438627989692388,-0.00175824693216573,-0.00138835185408107
0.000143937204980586,-0.00146248588988637,-0.00151692575025432,-0.00186311930405853
0.000248521477524507,-0.00207311777955023,-0.00147656579557391,-0.0018325224463385
-0.000288045881226153,-0.00293599552619928,-0.00245138734846412,-0.00176183087471142
-0.000977698594567067,-0.00280791590480175,-0.00278103438821194,-0.0016908152272438
0.000176075285417267,-0.00435262632987086,-0.00174605646223328,-0.00156088357971423
0.000172047311430345,-0.00823364151270019,0.000444913642366934,-0.00146466084941789
-0.00261557954653929,-0.00987058002212656,0.00332888499901784,-0.00124859040702882
-0.0041480248848447,-0.00564088287481535,0.00494898427932885,-0.000759417124448977
-0.00489711573575809,0.00174959780102758,0.00488647712441751,-0.000235599492526716
-0.00651421078942111,0.00762252954833952,0.00537363907354856,-0.000124398544261061
-0.00594930444800611,0.0113749418392701,0.00586387822350764,-0.000405741291856264
-0.00314926368454634,0.0138505912195469,0.00407474608533738,-0.000608461186253005
0.00109000577084377,0.011362042065606,0.000245911469512798,-0.000570238724735607
0.00596698860145425,0.00406706256827138,-0.00362956282578441,-0.000315680652314208
0.00925135303814096,-0.000744908204079618,-0.005850409126649,1.04342178218835e-05
0.0121591689906254,-0.000423057308977706,-0.00555935395810096,0.000233525573366786
0.0150899508708785,1.95293314513342e-05,-0.00525244335054283,0.000476412575001468
0.0158964577776791,-0.00104627548732684,-0.00716324017015316,0.000524084468989025
0.0156916178370516,-0.00152072046891665,-0.00801083594156894,-1.18986438090253e-05
0.0155070647787077,-0.00369001288888069,-0.0069990773545978,-0.000908900515388265
0.0131619272743638,-0.00586734746983945,-0.00672466102572972,-0.00178250862308621
0.00738587260526565,-0.00742392558918705,-0.00901864831180713,-0.00240874600872762
-0.000733457490181708,-0.0143529304567545,-0.0131244056040146,-0.00263868367491651
-0.0079487334674066,-0.022174776343293,-0.0156827309096054,-0.00266302839121011
-0.0109717900786881,-0.0204671055983508,-0.014619849222484,-0.00263691709357207
-0.00791082073395581,-0.0129162699533368,-0.0102416486830785,-0.00214513400312392
0.000713904581995247,-0.00866656665157819,-0.0072719826112573,-0.000842268871343856
0.00705983458401037,-0.00598845777982894,-0.00749061418039758,0.00105756000798828
0.00503613410441283,-0.00122177003211967,-0.00733976867563941,0.00264154544847523
3.36974192266092e-05,0.00497505147483468,-0.00560801755090617,0.00299438849376289
-0.00147057562984283,0.0107131206367258,-0.00173713554758391,0.00246884965405649
-0.000633660620954182,0.0109812456299311,0.00242054367584577,0.00204572210087785
-0.00303433747792507,0.00521483478445063,0.00270043662290636,0.001942372380895
-0.00851625120932165,0.000431061650192521,-0.00084749364593402,0.00148287281532744
-0.0139472364092394,0.00144469298093197,-0.00297220939792141,0.000368273713947776
-0.0175493022359405,0.00489892578148168,-0.00187278150736407,-0.000768609185288389
-0.0124649048412425,0.00495630660688177,-0.00187338837063078,-0.00120365952887043
0.00298105284860679,0.00087244995425112,-0.00311627713804258,-0.000571552070984156
0.0168153856044035,-0.00549511511277981,-0.00292493524237965,0.000820492641640594
0.0206906847651515,-0.0122607043469235,-0.00262232970553386,0.00209979941954847
0.0181167180689433,-0.0174092800950222,-0.00462134147978431,0.00256329324461837
0.0133482747380051,-0.0175557883418442,-0.00705417999201264,0.00197979720743353
0.00857161821486859,-0.00859885387274773,-0.00732950543205469,0.000728704106500447
0.00153240040411279,0.00879251207362397,-0.005113392830259,-0.000360894027227268
-0.00803215494805445,0.024905176028643,-0.00203742372709977,-0.000616964455428809
-0.0125277318398205,0.0325343486506919,-0.0016937747023929,-6.33970334377309e-05
-0.0114979004069929,0.0340942213549477,-0.00273081329261362,0.0007880224496206
-0.0115013578240024,0.0325500793704609,-0.00133915758112283,0.00144621708697801
-0.0125837819570999,0.0325534363259037,0.00196139354600278,0.00175189546213993
-0.0090023843746437,0.0360142698519297,0.00267139876390893,0.0021600210465762
-0.000257526330629559,0.0379919936916327,-0.00199289349415887,0.00284590780760394
0.00808305545492122,0.0359245299009967,-0.0079104711077712,0.00295557920977839
0.0135269098668524,0.0289533443994405,-0.00681243622776793,0.00197829984645444
0.0163640710995341,0.017965737742428,0.00380225824020867,0.000973249036027686
0.0169861204500815,0.00755204013392598,0.0126445695865683,0.0012807619529281
0.0176250926009422,-0.00328739395215075,0.0102524718038075,0.00253212560648785
0.0175806106976196,-0.0182312042664272,0.00188393857800064,0.00319283039647174
0.0151995541797175,-0.0330146330231993,-0.00255434341513828,0.00256814695292984
0.0118278091184975,-0.038073559943443,0.0012180528389409,0.00119414272993767
0.00449064936657426,-0.029939628741953,0.00843233927522231,0.000156295841070783
-0.00798435328937463,-0.0197343609948863,0.011284521043214,0.000166258621516704
-0.0200079733301408,-0.0150482066165796,0.00995943060130666,0.000802638321634066
-0.0283437462300795,-0.000987427956569253,0.0106984010631229,0.00108916903226885
-0.0322185562765892,0.025708319414438,0.0119944071111159,0.000795977273906985
-0.0310444203605877,0.0405845642053769,0.00761399300064243,0.000249908956208075
-0.0264164775473239,0.0332850233353871,0.000642767918629923,-0.00054003908654193
-0.0177045523107269,0.0162583064523333,-0.00164632708695611,-0.00141023506015212
-0.00295284808330626,0.0029008656968813,0.00110864250422477,-0.00160703976429352
0.0129317339799034,-0.00102876469991729,0.00403827914593326,-0.00069499756883789
0.0226287337487766,-0.000200370697180634,0.00331388217712315,0.000680100179476447
0.0228603944802263,-0.000626961598361092,0.00113929996911083,0.00152236921294368
0.017739628468453,-0.00126721815603869,0.00128014620825156,0.00142451361833991
0.0151700225801656,0.000599789011854895,0.00241969836226419,0.00070393992566615
0.0159093741875055,0.00260991311204383,0.00238382810027523,-0.000198450017154842
0.0140840797087054,0.00133782477598407,0.00233373476407825,-0.00102762232089352
0.00702754723467397,-0.00100460646741905,0.00317431019762777,-0.00152111831155474
0.00158464716915288,-0.00346752620383704,0.00399948696108023,-0.00160740572937777
0.000859105938986586,-0.00474283901254127,0.00480080767286026,-0.00148364704511624
-0.00315049209033123,-0.0026176512203816,0.00602049436308391,-0.00137214809437823
-0.0111092650593471,-0.00625627005526767,0.00560507331623006,-0.00141421969883266
-0.0129940214262947,-0.020972007036561,0.00258626677030454,-0.00179911509601943
-0.00928075928738082,-0.0347411777140053,-0.000476689497253279,-0.00236379524302713
-0.00924676209321823,-0.0367554553725374,-0.00100866373320687,-0.00238632688386335
-0.00993289158737614,-0.0281052477577057,0.00091143227831657,-0.00173035639973704
-0.00365109664935129,-0.0184951912569187,0.00161075326552092,-0.00103893927373475
0.00598422734370949,-0.0149612058495429,-0.0011811820867289,-0.000685242742589396
0.0117164859242038,-0.0158718479277613,-0.00496350972165998,-0.000766032696552923
0.0103080343327104,-0.0174157286766672,-0.00540857376349088,-0.00122353923154187
0.000799286577224799,-0.0143423841649121,-0.00261703038900969,-0.00155319242942012
-0.00971936406350473,-0.0058185787464727,0.00105454242892714,-0.00135807061464747
-0.0140891069368956,0.0023414859078334,0.00453068856710967,-0.000878219615071079
-0.0157603309323697,0.00475938021613211,0.0056812301147315,-0.000556038864624828
-0.0178577272848362,-0.00469981695002053,0.00366200528915114,-0.000579811273492986
-0.0155717254567997,-0.022358343298265,-0.000609502795729025,-0.000818016853784552
-0.00354882768557869,-0.034137808686516,-0.00471752467030958,-0.00119157555977052
0.0125499841249448,-0.0364869422826658,-0.00610878869257922,-0.0016027803340171
0.0194335911041619,-0.0342860307912474,-0.00565086553957918,-0.00155661653168706
0.0166513345367309,-0.0271144905985625,-0.0015430562543418,-0.000893619310819024
0.0145206186974948,-0.0143415310663056,0.00659261334287153,0.000282818458615624
0.0114757518679866,-0.00184147853489976,0.0120916195236378,0.00168423438836582
0.00149960518621425,0.00696432495127516,0.0137101538681932,0.00221105495901639
-0.00910820520215105,0.0115333404182917,0.0123731311553244,0.0012301854063226
-0.0135795631739369,0.0142557769035209,0.00681705293846498,-0.0008168512563988
-0.0153061780452061,0.0235841871355177,0.00221210392966868,-0.00312009023368075
-0.0165151623025605,0.0345621195480349,0.00304357032399612,-0.00460257759999937
-0.0163098872163179,0.0331330014220933,0.00589704286176546,-0.00453279194987814
-0.0156187129677747,0.0244317744155814,0.00648522200442113,-0.0029518409391861
-0.011432950875964,0.0202081651426752,0.00450315698032992,-0.000525789352397777
-0.00111859348060623,0.0194102708112443,0.00207039515982685,0.00181093353954996
0.00860397163231203,0.0146904645734059,0.000383151121775133,0.00347570458876808
0.0109063006845125,0.00503665492593833,-0.000640327177855681,0.00397455774518955
0.00805619071684622,-0.0027561368026442,-0.000987971837253628,0.00295208628706931
0.0045633807996834,-0.00631809214030926,-0.00105429085340688,0.00110218815158872
0.0032448589029664,-0.00888724165850013,-0.00152290317680064,-0.000513852210483833
0.00452409378006735,-0.0119069569236932,-0.000855033754931499,-0.00143099344895154
0.00440403159869666,-0.0134288872778434,0.00146617102470394,-0.00159645876689638
0.00176785164160163,-0.0108468005398602,0.00378375437765307,-0.00130958372874446
-0.00102458855595313,-0.00517795793231852,0.00574992453395672,-0.000765690182287169
-0.00377986505473262,8.59501677388918e-05,0.00760263406380615,0.000422578139352247
-0.00371023569944527,0.00479246325840912,0.00961657294407723,0.00248864620955407
-7.83010457274559e-05,0.00935882774687701,0.0112011323920762,0.00455287986944691
-1.86577963958217e-05,0.0117863833397264,0.0113680952567588,0.00524755789614786
-0.00477774500321285,0.0127872879212169,0.0100988911754947,0.00403390415924314
-0.0078284687206814,0.013123720296241,0.00828958463497186,0.00139680067042539
-0.00724236673351718,0.0128661346430361,0.00769943997342626,-0.00137872026026078
-0.00763746126408353,0.0150814369345371,0.00865487545394234,-0.00281340103482651
-0.00972634668375958,0.0207061466070245,0.00969654919863784,-0.00249014721212115
-0.00746137187578334,0.0251753484328194,0.00939662933029031,-0.00104161608239703
-0.0033060414656884,0.0243196852918556,0.00817955362192374,0.000402782132084081
-0.00266563639412945,0.0196160754443903,0.00726115309494898,0.000824751466847399
-0.00169955409691225,0.0127809603755205,0.00483986101444681,0.000466436494063272
0.000594515626062372,0.0058691295092055,0.00205267286791811,3.88621267894816e-05
0.000102092592854949,0.00189032231321146,0.0031163689153572,-0.000378499032814599
-0.00196141390132122,0.0016701917956058,0.00658247607211463,-0.000643058439271009
-0.0029094698652305,0.00385509589777709,0.00978074571593353,-0.000548689698410562
-0.00195782431049309,0.00669845128226513,0.0120017017650007,-1.92964723464766e-05
0.000435076454959976,0.00926575770634463,0.0107879377065291,0.000993830239814612
0.0013465505653631,0.0100803900205386,0.00646603531302726,0.00197563837344876
0.000990258977007475,0.0112838930618153,0.00365132242082411,0.00225646065839897
0.000310268289894464,0.0113574924380209,0.00241931354139931,0.00154119713736637
-0.00167448847269131,0.00609335200164257,0.00101087790501607,-4.41422302958567e-05
-0.0034603597893955,0.0023973698492488,0.00236787582441689,-0.00194768642091307
-0.00333526555747937,0.00629046042843425,0.00580733668192627,-0.00336652997750184
-0.00290458313342224,0.0128053565939682,0.00844379397695217,-0.00354967416620517
-0.00334945152207908,0.0143985971405109,0.00915233553576606,-0.00259147492177732
-0.00243515298448679,0.00929873739757013,0.00781061664539301,-0.00140788642853648
0.000194996101995083,0.00359765869222186,0.00598726866732655,-0.000638616437330588
0.00108614295088302,0.0014386987814807,0.003783342099054,-0.000177980809243729
0.000240093937409993,0.000620914895560394,0.00090663204620897,4.53297212810455e-05
0.000928354599067719,-0.000217823335880018,-0.00105117723005974,-0.000179165302205193
0.00202345650471773,0.000222389441216837,-0.000465377212566164,-0.000529786449898845
0.00177666961264942,0.00105221798710646,0.00156007302807277,-0.000362905837681652
0.00267105446967353,0.000943619805565719,0.00380011766182794,0.000281096681403479
0.00552387126088369,0.00273251602479652,0.00598284602504073,0.000730431918473878
0.00845676736632942,0.00740753694078512,0.00851240399257796,0.000689041272067579
0.00946864847268939,0.0126571557149397,0.0111944761566328,0.000677039604007653
0.00815914872555773,0.0165499593459624,0.0108977965913817,0.00108381598454168
0.00624413075068289,0.0163032191706447,0.0065035589406977,0.00128275392921305
0.00534858380296099,0.0105904664742094,0.00234609236784768,0.0006768134161428
0.00548842627446811,0.00162198319549558,0.000219766163803915,-0.000331121945971611
0.00294954626107439,-0.00763439387469992,-0.000854988757224814,-0.00139400208721782
-0.00341842877733988,-0.0159619757625818,-2.80908774024784e-06,-0.00254481309881993
-0.00869504830350891,-0.021762293749453,0.00105390509372594,-0.00349030577087529
-0.0110922433170241,-0.0224637772339608,0.000586153770243647,-0.00377234478573469
-0.0112124729967057,-0.0176147004056764,0.000527088538142876,-0.00323316225375765
-0.0067975124445182,-0.0108408590663087,0.00278917143540922,-0.00210932768681231
0.00135896212141166,-0.00503726548655182,0.00634285791522641,-0.0006423460112048
0.0061476973231272,0.00161443007320205,0.00881038633302141,0.00103192081845291
0.00409131138335563,0.00940959710175213,0.00850864361707409,0.00248467446387515
-0.000345106410316516,0.0153616138951883,0.00586699369742261,0.00294346333888418
-0.00244820343817137,0.0194406587170783,0.00415298942540449,0.00223446802580102
-0.00118931935422053,0.0204109565368748,0.00372958391256316,0.00110814283604856
0.0013286644303695,0.0161127339434108,0.00218373423552073,0.000274489845682831
0.00434339884670607,0.012104477422515,-0.000618722035227594,-7.62935361798632e-05
0.00773662310551059,0.0124012889102939,-0.00375233987588046,-0.000213463848688909
0.00912212994407546,0.0150656623714264,-0.00562554047058299,-0.000213584170852318
0.00832136168325635,0.0168617235787078,-0.0059167722364725,9.51503654497431e-05
0.00763902470596627,0.0148525047332314,-0.00557164048807081,0.000665985851314874
0.00680503143215774,0.0113797660408172,-0.00488152579878763,0.001337826179629
0.00410484135237211,0.00941959207606757,-0.00510945990966576,0.001600435613127
0.00175731579548571,0.0066856998378955,-0.00706240108588013,0.00113321029115543
0.00210378679292578,0.00148947483796622,-0.00926722188689067,0.00039068404246024
0.000882312254742633,-0.00628533376228589,-0.0110291388632609,-0.000266112372400959
-0.00162378429011375,-0.016878867049894,-0.0120582197440755,-0.000825824069084077
-0.000269788190232505,-0.0250891016059724,-0.0100572779733776,-0.00119664889361549
0.00159565011742465,-0.0245432751420059,-0.00363558634967749,-0.00109100412933365
0.00254014024476557,-0.0206475642795482,0.002773506928181,-0.000121185969583066
0.00521733290128654,-0.0221353290602068,0.00353032695425262,0.0012616649161373
0.00676867042255926,-0.0251882054291525,-8.40620384330217e-05,0.00200192084085556
0.00349354288146639,-0.0229390915778719,-0.00451862094272209,0.00192993066556538
-0.00403719714989961,-0.0177104048069452,-0.00783675569474005,0.00143493406180209
-0.0104575250224091,-0.0113237052366716,-0.00902385859218188,0.000639924088248205
-0.0104654542673332,-0.00184352437222061,-0.00920378451948799,-0.00019778996984342
-0.00280014390975033,0.00514664790014949,-0.00873085427919445,-0.000585005956505307
0.00630055432352736,0.00690118569803717,-0.00543774995226773,-0.000303724002166299
0.006609206338347,0.00634710084922627,-0.00155372455260366,0.000613733063273274
0.00218415554083464,-0.000104879416873298,-0.00173452501755061,0.0018451143022238
0.00385256908250549,-0.0110781624333419,-0.00391594142135702,0.00266831926487478
0.0085713751285285,-0.0178309335605697,-0.00458031993388639,0.00253535015986349
0.00982282426418274,-0.0203988881698559,-0.00468793931417695,0.00156250731806845
0.00745196722067131,-0.0259608867356728,-0.00494633010466513,0.000412958652079348
0.00317430978973739,-0.0293467702069279,-0.00372700062461901,-0.000460054417105701
-0.00223394801133966,-0.0183091060382579,-0.000185350369437823,-0.00102543009984477
-0.00754479155277479,-0.00464047648725447,0.00181873029952177,-0.00116252674488346
-0.00671490007348485,-0.00837886933489858,-0.00272931067632826,-0.00104273551971157
0.000920764901481051,-0.023078536337764,-0.00968405337384955,-0.00123740292283547
0.00570681675573896,-0.0328200620336106,-0.0115983640162431,-0.00160343402982039
0.00330736424737891,-0.032253622188577,-0.00879285645540326,-0.00145646918215754
-0.0020509618397534,-0.0205676112344774,-0.00519037723107357,-0.000660450705439708
-0.00943421310683101,0.0033515307969729,-7.88447950200036e-05,0.000391460096893442
-0.0143302652309662,0.032137655775539,0.0065402515190711,0.00128406226556581
-0.00992273542070624,0.042741073295064,0.00719317485769217,0.00192580748258897
-0.00323324081983259,0.0206407155541713,0.00109688831013994,0.00209589870129298
-0.000396802372908196,-0.0168327392985588,-0.00495716162774898,0.00140650648862062
0.00239076549659851,-0.0452264191885001,-0.0114085118457431,5.33025735612869e-05
0.00771705104022068,-0.055612099777343,-0.016641055999206,-0.0011097466220948
0.0129494667059327,-0.0476399788891018,-0.0157410509895289,-0.00129827952844401
0.014700647124565,-0.0303035290273903,-0.0126768556812252,-0.000718441283202573
0.0133646439981728,-0.0151745057101527,-0.011706981891069,-4.91715700247169e-05
0.00948775125047575,-0.00521133147504895,-0.0116315841055654,0.000372790681392466
0.00321918056135388,0.00220869385685833,-0.0110290084553656,0.000437438883416124
-0.00241652127737095,0.010713491671734,-0.0097634599002271,0.00026176931633029
-0.00462375713329646,0.0199529023918395,-0.00778265981679067,7.94151747303729e-05
-0.00381333185043246,0.028683281388224,-0.00493177417539853,4.97050767426018e-05
-0.00376345051343453,0.0358242538449188,-0.00171118368326425,0.000117792101912045
-0.0097147003664027,0.0359975877369057,0.00219925106065131,-2.4306677826394e-06
-0.0229215992702687,0.0295871862494183,0.00940912439672564,-0.000353773337342654
-0.0350772244544977,0.0159693529587573,0.017237262822584,-0.000685249721639742
-0.0337617515821525,-0.00467174551249914,0.0176625734872214,-0.000822195382108161
-0.0195324238612486,-0.0139499403817244,0.0127281231122346,-0.000669608494372586
-0.00406968306620157,-0.00655748494442338,0.00769056101296967,-0.00022552719660603
0.00518431915610541,0.000784393968584194,-0.000224550702257322,0.000192020798890394
0.00793151751793123,0.00221575341859144,-0.00896159332119557,8.56607027743676e-05
0.006451497043382,0.00361641161926484,-0.0123309006290506,-0.000493642527503638
0.00363686637497283,0.0076137469410651,-0.0116162200436756,-0.000889280727092603
0.00271400296080158,0.0115281062769095,-0.0100856852290297,-0.000716474614397787
0.00358487725106593,0.0133636862349306,-0.00946298151792866,-0.000253153269749498
0.00381543786265526,0.014931796700585,-0.00934442092726613,0.000132086923673331
0.0018580306596551,0.0151776510722214,-0.0077688778275822,0.000153212132999273
-0.0020213378484365,0.0114093621114719,-0.00621038169907808,-0.000321622311732837
-0.00522265235046758,0.00847249297763968,-0.0038866202017554,-0.000831390643593642
-0.00683317869287861,0.012280554338287,0.00120707276374498,-0.00101027846667894
-0.00937778438098822,0.022039886883025,0.00597308507688625,-0.000898469778674207
-0.013033228726329,0.0300550205948146,0.00727627041383836,-0.000527468842045989
-0.014110804102749,0.030508367004159,0.0055465306979027,-0.000110438161699518
-0.0105287378324553,0.0279894276569035,0.00190192798059546,0.000175371154862967
-0.0057227041826594,0.0261678633900679,-0.00103483792966439,0.000379798087865902
-0.00500553070684433,0.0216559683288629,-0.00146211093006376,0.000464109844308933
-0.00608575730542569,0.0145212729765566,-0.00219710533653105,0.000281555256593391
-0.003830917251437,0.00829235151683521,-0.00348343210946134,-0.000111574854247782
-0.00166512776121043,0.0032627699058822,-0.00306594454520888,-0.000484548622860701
-0.00127026418673245,0.00102190626321349,-0.00147700144404646,-0.000512326466157825
0.00293741384347299,0.000783378332054229,0.00230395118977393,0.000289460477076583
0.00804270596627986,-0.00270357288398078,0.00946759637204054,0.00189161230161564
0.00632462859693411,-0.00961481661370158,0.0140486632138038,0.00333273343853517
0.00126187228003896,-0.0143187871397933,0.0128408437740722,0.00364318153842316
-0.00292340161844572,-0.0131029300967204,0.0105384494318445,0.00258985798916691
-0.00754022021967233,-0.00920885003601396,0.0088835029863874,0.000666042209744578
-0.00925722165410202,-0.00484969773217934,0.00618192639612253,-0.00124293803193324
-0.00563945520078519,-0.00274112298161376,0.00327619966738265,-0.00252223532760457
-0.000354560987865652,-0.00668818182079929,0.00271469083645854,-0.00291228857395697
0.000965813382507542,-0.0102681143705926,0.00253892263596803,-0.00267485608708301
0.000426401724827132,-0.00875106026684222,-0.00076510524111286,-0.00231785207436212
0.00449177873466297,-0.00778924760281842,-0.00451219228583566,-0.00185701559286262
0.00787664383618395,-0.00919700794245063,-0.00639176393353626,-0.00117359456872464
0.00479088414743816,-0.0113532146448483,-0.00963194844259465,-0.000400955950030098
0.0010125591567991,-0.0126552279268422,-0.0130954115624331,1.70341312707902e-06
0.00257790554497292,-0.012625632451318,-0.0120895045935094,-0.000141480248229368
0.00908098031022431,-0.0163146197003413,-0.0105809795532866,-0.000176549206799704
0.0161945896575304,-0.0255680645169834,-0.0113767621406932,0.000326476660936266
0.0178059343855408,-0.03467731106558,-0.00742698375125147,0.00101631128185634
0.0124684812509119,-0.0370036748340618,0.00157754753990146,0.00170366761682932
0.00540176164412016,-0.0335213518687469,0.00749221942073976,0.00227352510580554
0.00163870974921776,-0.0260343017127717,0.00663732525126951,0.00228772451827684
0.00244970789161382,-0.0114799562969683,0.00340018156427737,0.00170453785288637
0.00596788279036521,0.0060085982116792,0.0040390053241572,0.000959626306776781
0.00678214859217668,0.0186429165109711,0.00725015947319572,0.000606447724597293
0.000555069800974271,0.021468297623925,0.00658013677537634,0.00102389425503802
-0.0108281930915676,0.0155866187940203,0.00293300142454627,0.00150944964884142
-0.0201757526387181,0.0101333117283048,0.00150985707075353,0.00099855171874959
-0.0193422085980573,0.006749000498794,0.000643225993072859,-0.00023807180780333
-0.00998685163072944,-0.000124518350619177,-0.00240780597516277,-0.00140155004392727
-0.00108710842419036,-0.00822857446668977,-0.00637022909345317,-0.00219185207047743
0.00289761457706035,-0.0110885109121065,-0.00816230910728935,-0.00254413148930634
0.00369087877184677,-0.00970053973803008,-0.00592539628621265,-0.00234629809533579
0.00446518170454683,-0.00892658621846969,-0.00322787592517861,-0.00155841541639593
0.0070454815902824,-0.00905285905660687,-0.00416239890782536,-0.000486274191076345
0.0098920786181572,-0.00858581746723104,-0.00593646074909756,0.000543476820498677
0.00835832650232603,-0.00563803462448782,-0.00455529115865278,0.00131980868341012
0.00296836492485064,-0.000921093915646362,-0.00202072359567402,0.00192913049848989
-0.00156056864858433,0.00132107211463589,-0.000456075904610222,0.00251907697302261
-0.00295057255267181,0.000638778979747574,0.000761094877709866,0.00259739433396694
-0.00201242555978688,-0.00108187364058987,0.000921654006551202,0.001989198401446
0.000280618069000755,-0.00165971119159008,0.000340123317363335,0.00147550079878471
0.00513873628416263,-0.00139863456778325,0.000476757930168868,0.00150283872470097
0.00895544319626051,-0.00452229878222387,0.000181669051404553,0.00154495780626182
0.00641918535289067,-0.00919761702209094,-0.00113559834871029,0.00111449262583086
0.00234648839204882,-0.00953379612248623,0.000374462734608408,0.000368019306280952
0.00106780923577761,-0.00646563614731571,0.00531853769196674,-0.00022914613576547
-0.00204677368404664,-0.00603418230250228,0.00649326872955511,-0.000306117725696582
-0.0104411756338354,-0.00808429477541352,0.00277570773989496,-0.000269772622745197
-0.0210063162088071,-0.00238524762964875,0.00350032687001096,-0.000622671899309918
-0.0287135675756478,0.0143783565046325,0.00971572220048298,-0.00067846898338792
-0.0350315078360509,0.0273646654627356,0.0122553100544467,0.000408432346363258
-0.0392731075954621,0.0253100743386936,0.0088213185470122,0.00200559177461131
-0.0284565987872452,0.0153554234154265,0.00439926488923229,0.00263871269435721
0.000678516663964998,0.00978938243578762,0.00280643634579037,0.00196784284580251
0.0249577103080122,0.0107072526800381,0.00332772913574566,0.00110583071724599
0.0210008979231196,0.00695995920018428,0.00139691978058794,0.000911505355262133
0.000398770272573238,-0.00361490111667882,-0.00244356743485844,0.000630481768841278
-0.00692531377024441,-0.00667120188862559,-0.00181962331723484,-0.000274474801431826
0.00412629669868495,-0.000578909572255504,0.00274640105963733,-0.000688894538281478
0.0166664819408123,0.00536669683231623,0.00528726261491339,-0.000192765972312627
0.0191924315324136,0.00822457657168666,0.00437334746876498,0.000310491772082366
0.015191984823492,0.00862006550230907,0.000180689551962999,0.000236719208888353
0.0114204931054804,0.00774393986910317,-0.00619196676443353,-0.000438667827942789
0.00602560878561258,0.00410352203531068,-0.0107099279995978,-0.00159999631508116
-0.00247308135710919,-0.00103938244673111,-0.0118288121194846,-0.002656712394368
-0.00650622629560627,-0.00269339875427905,-0.00979956802431411,-0.00273194169886739
-0.00291631297919045,0.00244262404158225,-0.00420349669015316,-0.00167385061849297
-0.00167501112078264,0.00945653417630414,0.00147442940233584,-7.88356579605508e-05
-0.0069628206489487,0.0122585546106869,0.00144642423262467,0.00116548592502496
-0.0098572192962634,0.00905596912214335,-0.00245099404281673,0.00136632386334345
-0.00207465248520442,-0.00859831938531907,-0.00522417784584036,0.000593045698881788
0.0118922244968892,-0.0430843698847648,-0.00786594091373071,-0.000526262098162268
0.0197168365351413,-0.0748362821333181,-0.0109843612892274,-0.00141376328013793
0.0195847266848349,-0.0810605264411171,-0.0119129976653677,-0.00176919555714045
0.0160862974462723,-0.0609158424092057,-0.00830819358388225,-0.00160025934980348
0.0110473387961894,-0.0307185770372471,-0.00228704847955201,-0.000802453029309096
0.00584741481958188,-0.00431894335039308,0.00322485369500483,0.000755228938048621
-0.000818457574777585,0.0128474712690814,0.00814623842820183,0.00234501998112081
-0.0101162717957859,0.0238643520311371,0.00960165334611014,0.00294659852654484
-0.0169657749193198,0.0429889938050012,0.00899375028579394,0.00234978021295207
-0.0150969870191308,0.0624511834754317,0.00897570052675584,0.00110989068601262
-0.00624952272300511,0.0599102446250204,0.00783581808398705,-9.17951606959448e-05
0.00120826528791713,0.0430574717691389,0.00536689404377287,-0.00114403237788667
0.00437755483920224,0.0266480605663296,0.00173628507039415,-0.00216135613449764
0.0064038384043513,0.0151746707642456,-0.00117008509399303,-0.00300342179611772
0.00694458395376631,0.00769848760907949,-0.00226474165545735,-0.00360589352552819
0.00510839158297501,0.00134962354203128,-0.00268180761057637,-0.00396135523464839
0.00395336201343849,-0.00191368242311594,-0.00289182191692246,-0.00389537746396111
0.00343457641842591,-0.00318196874758904,-0.00303284686518903,-0.00342190098603262
0.00155112314212736,-0.00521703073213769,-0.00298502517293194,-0.00274707002550957
0.0012600465807944,-0.00627796233420878,-0.00270173351223145,-0.00201515687000334
0.00290391208900066,-0.00568469427582705,-0.00268471634866604,-0.00147502382939736
0.00236593139904574,-0.00522387857002809,-0.00326841561253232,-0.00125388223479219
-0.000388526712602486,-0.00413602826343473,-0.00374342901202272,-0.00126840409376381
-0.0018446273141556,-0.000408348436366478,-0.00304672646544922,-0.00113203031782898
-0.00129831937254832,0.00421566894817545,-0.000958580766480197,-0.000388645483731066
-0.00148346231487511,0.0075580069795073,0.00147341569851059,0.000716103139842501
-0.00512323189650878,0.0121733740791186,0.00332893941615826,0.00162967800565079
-0.00949665799330488,0.0204161576294715,0.0053708286565958,0.00233125052494675
-0.0102180404261656,0.0281923708471145,0.00735126002587695,0.00295031099601961
-0.00917374502932577,0.0310937057546089,0.00807334887494714,0.00327808925409291
-0.0079030884893023,0.0315990088949358,0.00760277077139481,0.00303698837937083
-0.00575930214095019,0.0340235270347172,0.00559909238648155,0.00221617434226887
-0.00433871261279441,0.0396971357574358,0.00250213377341471,0.00107064061625993
-0.00267568951841288,0.045256672505028,-0.000352061634775454,-0.000308974260541483
-0.00139486295312893,0.0447770106494079,-0.00337215153796735,-0.00189691024664928
-0.0039461675549686,0.0391836331159973,-0.00551546187779478,-0.0034930290381653
-0.006890205254093,0.0327426150073465,-0.00434694487578196,-0.00484728638943315
-0.00620017793950209,0.0249604269038124,-0.0029968489574609,-0.00546177555938132
-0.00419865551107343,0.016027906703976,-0.00475334719927892,-0.00494276636546928
-0.00286152970775831,0.0105338701473528,-0.0063833825359575,-0.00367254684233835
-0.00138317438328919,0.00912769366852321,-0.00555975540218675,-0.00245974228179065
-0.000308075602231573,0.00319081314240822,-0.00242955288385418,-0.00152665514277968
-0.000586389439844933,-0.0110791359309145,0.00344581394672762,-0.000396145809751725
-0.00271370896053654,-0.025634619034523,0.00977099694158011,0.00117548778177759
-0.00635973063468848,-0.0311865065089553,0.0107864855909627,0.00295549689059412
-0.00859764633375594,-0.0236001897655565,0.00586076843066976,0.00437283623451332
-0.00949989215117207,-0.00908397116318055,0.00129452376397316,0.00478744594425624
-0.0110678816019694,-0.000962553147185373,-0.0010766963732812,0.00390099141693487
-0.0099562527707993,-0.0023358219237823,-0.00402088886872138,0.00182494259311647
-0.00255381959816582,-0.00424953219054742,-0.00706141662174468,-0.000650553906972755
0.00821017505684682,-0.00105741282370674,-0.00842142635029935,-0.00252364291122721
0.0149311207737822,0.00319510649709757,-0.00973469007544248,-0.0032511999364364
0.0132215135252005,0.0030174045674362,-0.0114657651947452,-0.00277646598152087
0.00686345920059615,0.000451583365427707,-0.0112643491775242,-0.00174669364719543
0.00281785166021957,0.00202499934919251,-0.00897297962253231,-0.00104645420205105
0.000276456516714303,0.00936564858193011,-0.00575598323026713,-0.000883560150344185
-0.00366587063525517,0.0177813972067434,-0.0016187356734841,-0.000959856096887055
-0.00638253216204936,0.0197851204837099,0.0009583265854612,-0.000869777052171935
-0.00818863111634557,0.0117693052545388,-0.00131429169787413,-0.000437078410747194
-0.0104785144148675,0.00161665804642893,-0.00467937708400238,-3.2975664196489e-05
-0.0108857945471713,-0.00266172837261295,-0.00497297884016679,0.000225833316992921
-0.00807540413516544,-0.00340821939240564,-0.00402734421419367,0.000660674013076275
-0.00417139470654345,-0.00621364567610066,-0.00363884414706832,0.00118046444288384
-0.00116335894721574,-0.0151173722438581,-0.00374371531506023,0.0015574141052467
0.000673721875966515,-0.0264108113844559,-0.00416217772385182,0.00166540737880961
0.000996484121743579,-0.0308297795348447,-0.00255444614781914,0.00150937279032056
2.96914922990227e-05,-0.0293694323677884,0.000958304583946954,0.00141171810083785
0.000692428851902852,-0.0264236433312233,0.00212923882513735,0.00137686905478145
0.00500639144084402,-0.0229585625758102,-0.00107434153994322,0.00102559766520118
0.0094371393591236,-0.0217213414478733,-0.00585938435288069,0.000332228377475169
0.0113628207877529,-0.02055103063459,-0.00679684104709067,-0.00016836083542623
0.0118033130168149,-0.0173136130886338,-0.00415712537692755,-2.06685234039206e-07
0.0111570591360097,-0.0137013291034659,-0.000839672702312158,0.000725737245317192
0.010524814717594,-0.0106085220963321,0.00131444322302276,0.00150045956784219
0.00934561521738225,-0.01047573824526,0.00115510385861462,0.00182309708077359
0.00586836357368779,-0.0144375163210593,0.00206141710464821,0.00151307319500688
0.000764817437414776,-0.0181468629633239,0.00367804683934966,0.000762243920785248
-0.00298353669984439,-0.0178121921391887,0.0030011530468245,-0.000146298270175418
-0.00466816500434994,-0.0142257587798008,0.00217373005839664,-0.00103738084167258
-0.00724916772336287,-0.00996995161760485,0.00320486180719449,-0.00170760962332649
-0.00766034630066671,-0.00905661720550125,0.00402101116697309,-0.00198090680105478
-0.00340263072462485,-0.0110453321291942,0.00400267047760503,-0.00188776567773377
-0.00023421152812504,-0.00982559772735625,0.00491820042567417,-0.00137504087858268
0.000581296508062388,-0.00700937517313842,0.00526633969648336,-0.0003684925006021
0.00574247239236875,-0.00918334817708531,0.00356762579140282,0.000853836362127867
0.014913523840504,-0.01133408500277,0.00164033603355052,0.00181242568678609
0.0178931412342535,-0.00706021567466733,0.00202019825572417,0.00208870080848153
0.0124616166152901,0.00217756437603479,0.00407795548178465,0.00170920295136924
0.0043959550217729,0.0116765936593389,0.00456722676344853,0.00119503198689467
-0.00313540746523744,0.00993768414360074,0.00116880354853236,0.000917981131377693
-0.00553775822939978,-0.00330779397500228,-0.00487922809756665,0.000610468411346164
0.00086822200445818,-0.0106503596328735,-0.00753526332668365,-2.269147000545e-05
0.0126490038551678,-0.00893748547103209,-0.00428811933745648,-0.000555636444708299
0.0209037155685957,-0.0114667237178447,-0.00195289630104296,-0.000376230958817121
0.0190233658880838,-0.018298676195772,-0.00299742936040507,0.00033533591985667
0.0104352439086052,-0.0200396097871665,-0.00261691478427797,0.000646343097447713
0.00336691942498114,-0.0164203843703953,-0.00185953821393896,-1.94843445190915e-05
0.00272550424629663,-0.0108203490716893,-0.00187292712131913,-0.00118718555710656
0.00706581550426328,-0.00533551329198678,-0.00110286314940663,-0.0016756301113377
0.010333538964405,-0.00149367324184529,-0.00131657074849987,-0.00091203162133009
0.00908141648748063,0.00162094981362517,-0.00220070954365443,0.00029632013448887
0.00496100847752094,0.00663809553730988,-0.00066782003711907,0.00085479955832887
0.00235507477349852,0.0125209170529287,0.00284903906310352,0.000647365891059549
0.00118182131489609,0.0166229824768361,0.00480453403536362,0.00047235948876118
-0.00186240189760128,0.0216518799143078,0.00580273339607688,0.00069632810290815
-0.00701900409754256,0.0230538912575038,0.00748146498026368,0.000733453879220826
-0.0112413462351094,0.0107862620796467,0.00847518037223631,0.000310110150563734
-0.00710702398762856,-0.00899773607426628,0.00959037348491217,-7.54125708318982e-05
0.00362508965030782,-0.0209427722496527,0.00738479038557046,-4.5522071203222e-05
0.00938713125835722,-0.0187336027210188,-3.14235786143102e-05,9.63523971830649e-05
0.00888619361169625,-0.00819060309864061,-0.00500653413177014,2.01513121586175e-05
0.00781001671875604,0.000920557240689116,-0.00577021646693774,-0.000116220627615065
0.00678444157746929,0.00424159759406355,-0.00499459763679702,-0.000250523255385376
0.00534256218209359,0.00383813627276616,-0.00241272295861629,-0.000406155241399544
0.0038042179720166,0.00695154867885126,0.000361591628106054,-0.000427861304478823
0.00145805562684888,0.0183250633256152,0.0023747009970039,-0.000256279239895442
-0.0015929586541229,0.0280239060018594,0.00421828892794173,-0.000118609966371967
-0.00583657314692094,0.0281703396882748,0.00452197482127711,-0.000110550134081767
-0.0107401845756346,0.0255132973645441,0.00223793191374103,-0.000100235328609854
-0.012492179521785,0.0276009281215151,-0.000235087611436284,-0.000157460890835794
-0.0103821841574029,0.0377909666959303,-0.00190122999146067,-0.000376599927400275
-0.00833880334736685,0.0486370009895406,-0.00397736744468643,-0.000559508573688127
-0.00650767501514265,0.0499391573830649,-0.00510382174530007,-0.000452886134975848
-0.002747812490683,0.0435837604578826,-0.00454312793875442,-5.71261063168457e-05
0.00207218705280333,0.0322559988040332,-0.00422718330973713,0.000530717317030765
0.0077591375372674,0.0164828862399019,-0.00488296670956398,0.00102147695971351
0.0123343712944383,0.00237671769365332,-0.00372828205200362,0.00135685580196189
0.0129334023307318,-0.00481217709058523,-0.000150534754255183,0.00185461061690819
0.0127483718553754,-0.0109265707820889,0.00184878880978138,0.00225907224926058
0.0145004206182623,-0.0264148633662863,-0.00125672606874004,0.00213248288019068
0.0135210371256035,-0.0418031304306941,-0.00686770338199009,0.00120109632076966
0.00336404815220236,-0.0340124854772374,-0.00646779638829974,-0.000642198218593084
-0.0107372562889599,-0.00892861654803883,0.000350748037019209,-0.00211060388744474
-0.0159734485775226,0.00494216643023669,0.0055391214380774,-0.00166444195035049
-0.0126284973921005,-0.0010675269579879,0.00559496198768244,0.000181050746575846
-0.00825509298189924,-0.011855507191347,0.00446967207210253,0.00160170296781175
-0.00508016473326954,-0.0101498636759513,0.00590880737830673,0.00163307182908905
-0.00264229587650151,0.00513247885410049,0.00842140217649209,0.00110853459000967
0.00120927380413021,0.0200939773909837,0.0115114424572499,0.00112278867670232
0.00574585142474166,0.024989711326909,0.0134338605556428,0.00157041676978774
0.00735937118887976,0.0234081098765863,0.0114670009867515,0.00180234246805544
0.00594302965617017,0.0187502810155344,0.00759375908879732,0.00153390541094612
0.00537355248684322,0.0119658346093939,0.00524169369212281,0.000788211990224687
0.00781271151802011,0.010678541391911,0.00447830585759484,-0.000214265600575237
0.0106080878492031,0.0190285205217468,0.00257957596410031,-0.00100878966778685
0.0062382679484865,0.0261771192533319,-0.000459283638042769,-0.00132802411579276
-0.00719595235192927,0.0206888115788498,-0.00270415347342754,-0.00124723776344213
-0.0184876799843743,0.00943334867072537,-0.00171806761002855,-0.00105760719055667
-0.0181668760769822,0.00281398972402828,0.00270676286813577,-0.000706339383929306
-0.0099970678530586,-0.00235790033702146,0.00616524123205147,0.000135729454106028
-0.00134191494828103,-0.0120512066149977,0.00603440901358081,0.00128367724385029
0.00694666740181835,-0.0219615376813283,0.00444370976941416,0.00204501009145052
0.0104069541637581,-0.025115737499139,0.00504120521423834,0.00200687810933237
0.0060069317110699,-0.0265315430116941,0.00733801979972819,0.00165913482979444
0.00394524544533482,-0.0318468468097772,0.0106010133010851,0.0015485243104389
0.0105762074892678,-0.0371400617091002,0.0137604025203774,0.00157858710488496
0.0174615061724212,-0.0369587696435571,0.0116418090729597,0.00139898135793715
0.0108141610993325,-0.0281873787801961,0.00690260188596789,0.000894106219076515
-0.00758169420967443,-0.0137875850940071,0.0052013860001851,0.000177447429460824
-0.0181046855244568,0.000413878950451894,0.00529748643943468,-0.000523865253441884
-0.0150595438224132,0.0107914119783149,0.00596392432079242,-0.000976558436211786
-0.00627799444870175,0.0156045875146789,0.00809665205817343,-0.00101139773549759
0.00499576183260105,0.0154552251239775,0.0110012751914496,-0.000496975141713752
0.0115078149016704,0.0160743496252485,0.0124641772653703,0.000269787248816341
0.00717069603553542,0.0216650830926463,0.0127830133549433,0.000879748600978459
-0.00293170743693623,0.0268951657966644,0.0132359178819393,0.00122779121205482
-0.0133105246038427,0.0275941422003737,0.013873764723949,0.0010930011382096
-0.0205751495045618,0.0210813397036809,0.0130928439355488,0.000498993040168942
-0.0207530256469559,0.00705189496924173,0.010144639150232,-0.000182618926592608
-0.0146246070487357,-0.00341771880987214,0.00649306602118943,-0.00100605673189916
-0.0066636546913361,-0.00251961436904724,0.00374645080529218,-0.00199692493217389
0.000432887144851814,0.0026295855331347,0.00345299445298564,-0.00262495189707344
0.00542172122723754,0.00426339725915429,0.00322108924682411,-0.0024543951699472
0.00818267466477218,0.00406172605704536,0.00134288114258335,-0.00154709210323701
0.00994406378952036,0.00530613816719971,-2.39427289150536e-05,-0.000528076182307201
0.0088033699272277,0.00778274738980388,-0.00035962076778824,-0.000171640170514117
0.00475762332103063,0.00583148514681275,-0.00181476635457615,-0.000529540242131547
-0.00112103570441718,-0.00262389800981954,-0.00489834672589237,-0.00135209229375327
-0.00838794776154935,-0.00591187830041648,-0.00565688547572014,-0.00244954090691447
-0.0123726934638162,0.000811287054927824,-0.00208150101629185,-0.00330482990283154
-0.0113474910974792,0.00631976520287165,0.00339035021862031,-0.00307611040339138
-0.00677013531458798,0.00627513851658195,0.00641446226314134,-0.00128938851592584
-0.000894818177769966,0.00412603754679604,0.00343653809809456,0.000986134865479771
-0.000761235304608243,0.001576043038447,-0.00333695597905048,0.00208173842820805
-0.0109056188886962,0.000151548207767892,-0.00747887717438238,0.00143796240977772
-0.0204489709853931,0.00124459592092112,-0.00608153032632854,-0.000287952107328723
-0.0193322815676695,0.00550492153258399,-0.00276711059574726,-0.00154053220164287
-0.0139268392838165,0.00968711145675021,-0.00202652397669719,-0.00129991210535174
-0.00891513866976519,0.00831530933785027,-0.00500395511311864,-0.000450835308945891
-0.000417740270786619,0.00158798529305968,-0.00968819306602167,-0.000506637552835306
0.0129105399652348,-0.00386061404525287,-0.0132905605590907,-0.00169429973295113
0.0239207925860012,-0.00414193196891684,-0.0145774295429196,-0.00284049563751827
0.0230039523910598,0.00113871822161729,-0.0127237179179035,-0.00281885434630944
0.0106634351023711,0.00913886217397579,-0.0103058142083579,-0.00191187717144072
-0.00112476227551192,0.0156042843418849,-0.010667751147551,-0.00120362423692271
-0.00261366475314764,0.0212401432621612,-0.0111953036703971,-0.00114299822268494
0.0022261393885753,0.0219010340525404,-0.0113002144846016,-0.00130154511502695
0.00607999516876911,0.0111252490288984,-0.0134663986424886,-0.00115305975440059
0.00590253618394757,-0.00704973175791647,-0.0162130035808423,-0.000888372149241429
-0.00129828116675254,-0.02056476544694,-0.0154196619524522,-0.000941906956197598
-0.00919228648839643,-0.0207052624680243,-0.00711714734395433,-0.000912087127487548
-0.00898978158045786,-0.0155298796892588,0.0021643902611273,-0.000170739842153647
-0.00407923441250464,-0.0170641647231197,0.00198315088391743,0.000937251186986427
0.00012599666259581,-0.0227182983905881,-0.00506274712947057,0.00182914861759939
0.00168943320512613,-0.022455453049617,-0.00961843065800527,0.0024167572780078
-0.00136770447680425,-0.01598019498404,-0.00828611586279795,0.00276256330488784
-0.00801261281789551,-0.0116168063444919,-0.00702501875113315,0.00277125392579432
-0.0124029238355047,-0.00974625255204482,-0.0103083256933252,0.00225966055607204
-0.00972949289787924,-0.00451918308339351,-0.0133949469585762,0.00151038088983288
-0.00373873718439793,0.00644792646118936,-0.0129152205922186,0.000939303805135713
0.00072915431116276,0.0237851005898731,-0.00900092831189047,0.000651512288124006
0.00409602164261601,0.0397989227043306,-0.00273626277279173,0.00061808331199085
0.00670096203476738,0.0383647189460482,-0.000421227014304641,0.00077124079015756
0.00840947033416608,0.0211172681359609,-0.00311509419316691,0.000990290865284366
0.0087180907420656,0.00587857247445621,-0.00543552325177206,0.00118087507590454
0.0073722265993033,0.000235469514952829,-0.00599058996932637,0.00119288541998556
0.00505251270784796,0.000179790337621926,-0.00445814615886906,0.000899920820085114
0.00303541551652259,-0.000530549998878036,-0.00201476207132161,0.00053645268740937
0.0020616238521037,-0.00265266921902912,-0.000485782967493617,0.000379414069390439
0.00269937179211031,-0.00412385136568362,0.0018890549915361,0.000682158204562867
0.00423942776131676,-0.00621509762296724,0.00393959264642069,0.00155911150256189
0.00338788824447902,-0.00767697956890709,0.00404890788801344,0.00236440261490729
0.00128712209096288,-0.00352605371820065,0.00386704979185591,0.00249610934784234
0.00123582325042764,0.00637831591987492,0.00234055076184437,0.00215651374384328
0.00162100533507983,0.0168028616402596,-0.00110693635502391,0.001527807475824
0.000358432719653836,0.0244987619241404,-0.00310289600427527,0.000723930926586177
-0.00215360635315746,0.0263112812721469,-0.0033571427395818,8.28150469668753e-05
-0.00382318345300566,0.0228905197793848,-0.00320350781831406,-0.000190896352847465
-0.00492131188205451,0.0208561251595756,-0.00103468976248137,-0.000134074679654267
-0.00565869743042075,0.0220489241741233,0.00205212655197325,0.000234692139948642
-0.00308617036637814,0.0197338841653094,0.00533367824383894,0.000935803143096414
0.00197006575081176,0.00751817068798032,0.00756851391858325,0.00165801814497736
0.00582837974797866,-0.0115596939684991,0.00581512927835977,0.00205666666108517
0.00779853690122755,-0.0300315483207394,0.00364329434736152,0.00206837249528515
0.00939385552752729,-0.0431667247237668,0.00280479101463327,0.00157636918513638
0.0096802503778371,-0.0475309108202453,0.00274054451590874,0.000692898127484029
0.00753155544775206,-0.0448224469271608,0.005404250337275,1.47497714845452e-05
0.00394968503354958,-0.0412446704971364,0.00760708377212703,-0.00024366827774156
0.000157550717940452,-0.0370113771431151,0.00611486093214867,-0.000565987903118795
-0.00234576319948094,-0.0286693540484486,0.00316428086595992,-0.0013088253648073
-0.00246994574354738,-0.0161183933439182,0.00154322849223552,-0.00224747467761431
-0.00390735955340051,0.00187741442055783,0.0016608026314935,-0.00279456231048833
-0.0108641638572078,0.0310800020846114,0.00410373934177852,-0.0025524497759516
-0.0162261232333165,0.0610274095949752,0.00673669829075201,-0.0017523666012006
-0.0128932816730168,0.0656622334504137,0.00528112711306184,-0.000981812204608695
-0.00555297454609077,0.0417440956168699,0.00113551870035934,-0.000386491040603784
0.00160168660776719,0.00882056041139372,-0.00270789610561245,0.000147005032066336
0.00797932128516024,-0.0189903297375018,-0.00469434288054225,8.37777598307542e-05
0.0107076137824565,-0.0359401933693118,-0.00426263764990947,-0.000895806280028792
0.00913858803303582,-0.0422161022309698,-0.00399124548368077,-0.00188315581755113
0.00685469853327171,-0.0417939871706672,-0.00459769893147391,-0.00230709561256564
0.00622781126762775,-0.0376109820288444,-0.00345183398620847,-0.00263358510783004
0.00811883822820902,-0.0355909680533335,-0.00155501811791758,-0.00289417279687749
0.0117909866662358,-0.0387789397171544,-0.000948502002561258,-0.00270945299104314
0.0135429312419904,-0.0411642173785456,-0.00097569253002287,-0.0021533612684219
0.00898498947168153,-0.0368324597377116,-0.00128422011745192,-0.00143929898738423
-0.000174096720600866,-0.0264253423543969,0.000151653478410851,-0.000676953612149191
-0.00688467784682336,-0.012844693459072,0.0036653284075941,0.00023464007732782
-0.0118726228739707,0.00148410505275391,0.00661982038437216,0.00161703599067612
-0.0180571152117591,0.00785293474323404,0.00730455621230622,0.00321718604822305
-0.0207896528515689,-0.00144427732394188,0.00267408749747366,0.00388597226582042
-0.0166466147879494,-0.0172246654646546,-0.00455988515386655,0.00267736530963739
-0.00983156976872037,-0.0281484749055891,-0.00710828261540941,3.23100644300965e-05
-0.00549984210986255,-0.032152044367169,-0.00612334258920702,-0.00270129149914214
-0.000742804068802163,-0.0266452232215673,-0.00426819769892319,-0.00445380558801094
0.00675951837259809,-0.0112752894754487,9.11424306119374e-05,-0.00475842307522457
0.0132186739413595,0.00220196535873278,0.004183862161356,-0.00363708646276341
0.0151914607984251,0.00250806356232234,0.00299640869862929,-0.00161578831014732
0.00999641294282611,-0.00609987000683815,-0.00201288053053104,0.000362222295575959
0.0017767297991545,-0.0149600160818877,-0.00547019780992148,0.00143715130932301
-0.00210943926453827,-0.0176472759620627,-0.00534568838711966,0.00147672566757503
-0.00106458107327344,-0.0130741655535711,-0.00420008271690331,0.00104481138264631
0.0027510889673609,-0.0053917559459838,-0.00326729403529125,0.000760315282271614
0.00593533578583144,0.0043814493814075,-0.0028495175367881,0.000778015851265132
0.00635637958843044,0.019554350840834,-0.00261481701194259,0.000872492914619392
0.00391500744952954,0.036756684153296,-0.00232736305756883,0.000916832868047577
-0.00191312755154262,0.0463579639139374,-0.00229938610042681,0.0010296566563408
-0.00816661723822487,0.047660871034696,0.000577740344375162,0.00146338796093925
-0.0112471815445535,0.0438406433983685,0.00529709555108035,0.00230835885394166
-0.0123644610631451,0.0359777371439826,0.00716743511560762,0.00312269915522279
-0.011017889337476,0.0211208476921593,0.00192206563015561,0.00306869826565704
-0.00607664821008039,0.000893756866250761,-0.0075060044033368,0.00170292630186819
-0.00210186646965516,-0.0133218864032368,-0.00951387505446899,-0.000361078686755706
-0.000876068404285996,-0.0233912626047337,-0.00293582834299787,-0.00175597093757555
0.000193408310433187,-0.0360378774772225,0.0034942019730574,-0.0015158163883552
0.00113589942772759,-0.042777635714965,0.0043635653615073,-0.000135836239820972
0.00194427860706828,-0.0357058135481819,0.000202168124543662,0.00101396194948991
0.00471054559940581,-0.0200334842578465,-0.00475545690185034,0.00126157856256924
0.00824319180517221,-0.00402241478574018,-0.00644898056139231,0.00103467496462829
0.00955977587907035,0.0102104898284277,-0.00330148457127605,0.00102266163281159
0.0071819050870751,0.023857806433331,0.00163824343901522,0.00130480117827863
0.00334312832351288,0.034227247305179,0.00335117419761678,0.0014810078754303
0.00334070179226883,0.034631890267471,-0.00060441176893979,0.00122172045646699
0.00664424788457541,0.0309403223872549,-0.00461390521900303,0.000497258888085383
0.00647417487270624,0.038207716565528,-0.00142308215972908,-0.000225480872999007
0.00195734258565409,0.0518088146827684,0.00509041061782448,-0.000436075321096998
-0.0012206103332647,0.0538746780536843,0.010266103339101,-0.000204838220375493
-0.00316659269787686,0.035854579216066,0.0141476643141943,0.000305534296191737
-0.00754877744296145,0.0046121867775992,0.0142495101415997,0.00104465540442539
-0.0127608234601892,-0.0193321029807,0.0105467139015158,0.00166213712396011
-0.0157216105168343,-0.0257677068216969,0.00632849042719424,0.00168989616668914
-0.0166528636562216,-0.0220162353542195,0.00480040617774074,0.00103933667743395
-0.0153214774788918,-0.0155333434419961,0.00428097207126944,7.84315451863753e-05
-0.0108207563333714,-0.00935629302213636,0.000893793445311016,-0.00085611174804582
-0.00296015308506964,-0.00627388215370795,-0.00220452009617484,-0.00172571211637451
0.00716019209694283,-0.00626982484406257,-0.00221716499685464,-0.00242489073210631
0.0132521927325992,-0.00492339939401135,-0.000302261698234511,-0.00258188194231584
0.0123721328588177,-0.00361142274010378,0.00130392988685343,-0.0021483015993037
0.010809048663019,-0.00833210302572943,-0.000390754652730666,-0.00154419153220345
0.00966283633741971,-0.0170677898751918,-0.00405712690471447,-0.00115673002183612
0.00810902852858694,-0.0224724487863905,-0.00601856227589169,-0.00106398384869573
0.0112524043853501,-0.0223487411054199,-0.00502161201501674,-0.000994446253257072
0.0155311121464826,-0.0158587192717221,-0.000881150403268641,-0.000679767482568959
0.011325466758057,-0.00606587883579948,0.00407895510454695,-0.000198389135075228
0.00229022253352432,0.00137719508910181,0.00709346930612949,0.000132684726207533
-0.000665055980366199,0.0101377218742194,0.0103164271151321,0.000266869312762506
-0.00169622260009281,0.0194179623243981,0.0140673604177097,0.000702399822181437
-0.0105624873406962,0.0201849636561593,0.0127837035711132,0.00132724240988529
-0.0206057930470616,0.0138010344507582,0.00726118453103956,0.000891572293814749
-0.023167137582948,0.00884510578870987,0.00523971535588919,-0.000981174325312817
-0.0197448240101017,0.00684352454378287,0.00690985045617837,-0.00293120473308141
-0.0120643238519738,0.00186940626547872,0.00645275921128927,-0.00369662913819813
-0.00425165937506334,-0.00647094298971039,0.00303895163364122,-0.00350270273940976
0.000680611872840138,-0.0118035146225127,0.000446118076164788,-0.00305714611998875
0.00423877668673842,-0.0135609452087848,-0.00042716669818553,-0.00240596515893818
0.00567194426938588,-0.0152427280995697,-0.00141016733362598,-0.00158031120371207
0.00565926090921027,-0.016684599770788,-0.00217323792455179,-0.000779797150858607
0.00357444837399843,-0.0156109767672118,-0.00208483622043831,0.000158633728224074
-0.000743254241653631,-0.0104201570781247,-0.000856978506407571,0.00124030890264612
-0.00287503962592758,-0.00285354417293298,0.000869711239701404,0.00217100385525613
-0.00182524101087771,0.00102212700051347,0.000883888093110783,0.00281385808031132
0.000316731660186209,-0.000108331054558124,-0.000288174298939882,0.00286402424162607
-0.000354898414509057,0.00125952343971532,-0.000356898466150961,0.00196958898273792
-0.00487100633053248,0.00968961698620752,0.000214623872973246,0.000362592709020552
-0.00978282721993833,0.0204716459570732,-1.51430276813806e-05,-0.00109290655013705
-0.0123571168300153,0.0270367968904864,0.000127484337832559,-0.00193560472205731
-0.00918344713693827,0.0275330876665773,0.0007385249364161,-0.00247653735581111
-0.00257132090729413,0.0228700215059894,-0.000803871149065159,-0.00285498252263068
0.0011752512778504,0.0156609482170748,-0.00382864123659,-0.00307247415011575
0.00236710040043967,0.0110215515416599,-0.00583837927553357,-0.00323625892500727
0.00317880555262236,0.0097637682010046,-0.00770668015851175,-0.00321173809354921
0.00357705833410216,0.00883660136702683,-0.00960218553299011,-0.00270573031747842
0.00394685302968049,0.00749605383160759,-0.00919905739912462,-0.00159429023675526
0.00222040979418858,0.00648392722612275,-0.00556202105824042,-4.95231837555933e-05
-0.00372980987446467,0.00765478623442882,-5.77546046080513e-05,0.00172750189468669
-0.00896562738512885,0.0096055555277253,0.00217272707072006,0.00329448593271373
-0.00800641508813797,0.00930746677544692,-0.00105301927205698,0.00380809732745174
-0.0050813857977538,0.00957520768462202,-0.00527919819102914,0.00302959126107212
-0.00364097168520256,0.0107787791028664,-0.00755716231256428,0.00158452865118818
-0.00226972999043923,0.00730708731081725,-0.00725080299620606,0.000244193354515491
-0.00193011875243007,-1.80884104798266e-05,-0.00485607426985378,-0.000574306867809765
-0.00145456318382744,-0.00359998952976192,-0.0029381168011193,-0.000898583824296383
0.0018933068164608,-0.000604695422388511,-0.00222785246654572,-0.000963401545025775
0.0115342530803203,0.00217640524617859,-0.0031224111244553,-0.000657378256430155
0.0286327523426981,-0.00606233383845769,-0.00676278815102652,0.000311116551401585
0.0425931599470291,-0.0225908081558565,-0.010283496816658,0.00139481444100838
0.0359758939900397,-0.0305637420133741,-0.0106701655232555,0.00169505399851602
0.0120897599060243,-0.0261712540738795,-0.00763249051261781,0.00125681063026366
-0.00686248621345159,-0.02245575250419,-0.00325637286563683,0.000605698788807477
-0.0113731937696595,-0.0309186663390128,-0.000127128790452397,-0.000120179393171918
-0.00504094055338638,-0.0521201239094464,0.0008297900084164,-0.00089151233973308
0.00406218246992263,-0.0682938846953026,-0.000178569687529975,-0.00130766319537126
0.0064903630924003,-0.06069943409185,-0.00170558393516554,-0.000941370319125767
-0.00212946445837875,-0.026620603268111,-0.001152863547374,-0.000241605472567329
-0.0166019310879252,0.0285796210058596,0.00367100713007282,7.21055989990965e-05
-0.0227085100240069,0.0772478716827203,0.00976222809227859,0.000276465641635779
-0.0146470006453184,0.0877280421668958,0.0120760537468108,0.000908956312016686
-0.00151920933327674,0.0646149524525872,0.00929741252828105,0.00161293006016735
0.00782904782398086,0.0327948291710216,0.00446550346534522,0.00179402555945877
0.0136963743984885,0.00838859807870498,0.003141815625651,0.00158871636230519
0.0200421911868193,-0.0090093504173259,0.00538717404504186,0.00140942691296741
0.0242270433313505,-0.0232368965505401,0.0066985219063884,0.00132809419325053
0.0224698950079802,-0.0340824903891129,0.00598113968187086,0.00127096476468924
0.0170145931758544,-0.0375883550348811,0.00498444467318224,0.00114049589252941
0.0110872089003338,-0.0311223543737203,0.00568844453894592,0.000959577627336136
0.00628734422508449,-0.0233653385344405,0.00763915200379252,0.000916726744872191
0.00198163701255966,-0.0212303282396231,0.00896700662740784,0.000904536390538345
-0.00227110750313793,-0.0204292148761301,0.00879813535917964,0.000639645520295862
-0.0059456996677688,-0.0162188644159648,0.00796962697779105,9.45157286267209e-05
-0.00880084499317301,-0.0102339437479456,0.00886247616401492,-0.000475456779443833
-0.00973974555587988,-0.00626185966424054,0.0107293227229163,-0.00073063380422375
-0.00971357035104491,-0.00404549429431507,0.0117522558167197,-0.000601377850273307
-0.00976105242576484,-0.000330069707784654,0.0120318939022969,-0.000134787964209933
-0.00936693052950698,0.00602911035710276,0.011859290035419,0.000420378728107534
-0.00765037972357068,0.0157944342943412,0.0114469539368122,0.000712006159503538
-0.00517820159223845,0.0288971238635357,0.00905104648093928,0.000894554396493715
-0.0040535315260634,0.0399243831235972,0.00420431008013744,0.00112415188098961
-0.0034219998726818,0.0435333032482062,-0.000371072316267583,0.00129221811267497
-0.00211907691221282,0.0432747702085962,-0.00307657263512301,0.00122331060429319
-0.00133668505151517,0.0437542640703244,-0.00509420124168634,0.000731628477775655
-0.00099389235893018,0.0413797515346772,-0.00722339464498563,5.5497829738936e-06
0.000582073355730987,0.0319660904811624,-0.0081470109039465,-0.000627358579403165
0.00239157501570127,0.0191037607969596,-0.00737304639832095,-0.00120026081612459
0.00185291271038109,0.0110431237733631,-0.00531945173933197,-0.00152626594161116
-0.00137891780067007,0.00291014653816763,0.000485353390248629,-0.00115300028808419
-0.00557021746113913,-0.0142475985383366,0.0106245291400513,-0.000233149364213657
-0.00787196099313154,-0.0316615728539966,0.0168505932481853,0.000809441190481148
-0.00848326678934838,-0.0401656967959182,0.0129079039933194,0.00138677767820035
-0.00971243660283286,-0.0370910674625808,0.00323579328408237,0.000899183175822337
-0.0105131430257903,-0.0222106747479834,-0.00272738155813544,-0.000290083924494905
-0.00932514884908721,-0.00489424971008751,-0.00082058969067946,-0.0012024315333759
-0.00733036334295993,0.00743220623579101,0.00216367176221894,-0.00133578719327859
-0.00587985703957424,0.0148065393695065,-0.000694387428399241,-0.00080063571456455
-0.00370297016334703,0.018269067022501,-0.00618482593208415,3.44780456878555e-05
-0.00155585460827754,0.0209786837842324,-0.00706707118190715,0.000624955667827344
-0.00121023234805104,0.023659282318181,-0.00417983829785307,0.00064776305117285
-0.00185561440370247,0.0216552671664455,-0.0036063535172003,0.000286345147312446
-0.00212142920414332,0.0157175560158457,-0.00522518706896905,-0.000163640188421031
-0.00182828516580109,0.0123244387348925,-0.00645215373756405,-0.000533801519829076
-0.0017648091367903,0.010523171867238,-0.00668281354749601,-0.000791865218615421
-0.000290959612662418,0.00540266508763641,-0.00650297499824942,-0.000899640186823622
0.00297660802901552,-0.000467936764819091,-0.00737342748125043,-0.000726707571996632
0.00591816254473333,-0.00695085374194389,-0.00967770882118358,-0.000413604217379223
0.00874684548325801,-0.0200925401892329,-0.0128402314865348,-0.00034105006735538
0.0103491221332665,-0.035683684969069,-0.0150616386434217,-0.000537774154214951
0.00946706545300447,-0.0445255856381305,-0.0167331430430694,-0.000900343843206429
0.0081497502428799,-0.0449362898823392,-0.0180971405017458,-0.00147445673376232
0.00545815065659781,-0.0402333863147744,-0.0163409527486761,-0.00199337584526072
0.00236604358052887,-0.0341572638474358,-0.0120953569726717,-0.00196785547321225
0.00201372439524682,-0.0274684372776726,-0.0080473386514615,-0.00112603180829092
0.0030965357998016,-0.0202967566054783,-0.00731443166376616,0.000302403292028107
0.0037855257963016,-0.0139568241294663,-0.00940853880933087,0.00157700479313645
0.00371304786899025,-0.00846198421104005,-0.00900759986936164,0.00216269111211593
0.00302322757450013,-0.00334846211279379,-0.0064627370907151,0.00236855446032025
0.000239422782623046,0.00225942035327621,-0.00290967349986179,0.00277069675294793
-0.0043147428486371,0.00582898362237788,0.00276261329049837,0.00306698770688995
-0.00674543007004704,0.00181519936485739,0.00655629936931618,0.00254262052432932
-0.00482557265589457,-0.00777501349466138,0.00414684648099916,0.00155644693563948
-3.9669751764628e-05,-0.0151155432465354,-0.000486546311231298,0.00114231410673943
0.00375751332968672,-0.0138666579417793,-0.00171590516643242,0.00150395258875211
0.00549057941377934,-0.00688892488903755,-0.000745829484340214,0.00178018817146705
0.00620308702022924,-0.00164896355266102,-0.000216312897673455,0.00119987326942832
0.00698682240051635,0.00193452515412887,-0.00197675978015666,3.36604043432551e-05
0.00744641295859179,0.00472459074373592,-0.00466651602346289,-0.0011575934375118
0.00591046747730291,0.00767580325978865,-0.00508287554690586,-0.00223087026411629
0.00424841539166249,0.0124349200854118,-0.00442130620641837,-0.00288384523877688
0.00343293170056524,0.0162384846585163,-0.00453294277886787,-0.00289601212400936
0.00232104642939418,0.0199188815016853,-0.00302224690997333,-0.00236505167759074
5.9178958460819e-05,0.0259526743853209,0.00217287092025535,-0.00112307304273735
-0.00200843675626342,0.0301355754173931,0.0069343427723285,0.000691189618777435
-0.00179611030129444,0.0285000948497768,0.00782623844614899,0.00243113102213834
-0.000707210681960311,0.0216086742629703,0.00578665820520456,0.00352981162303408
-7.76288566227568e-05,0.0121377516769745,0.00209991977752396,0.00344940627245313
-0.0004771239830615,0.00499493154357303,-0.000439593338053035,0.00224493198544901
-0.00152583483322434,0.00066161064290083,-0.000663949881380107,0.000797136155674556
-0.00127333075896938,-0.00563196326774312,-0.000204615503335001,-0.000164037726074727
-0.000203909269096768,-0.0131782503864832,1.20971996711104e-05,-0.00050425948329522
0.00108302405129613,-0.0149522260496917,0.00203226013524535,-0.000524491793266667
0.00302899664634828,-0.00928384511251743,0.00584585348820488,-0.000478929352530403
0.00456746422877703,-0.000733471103468237,0.00710905600918719,-0.000263684182337496
0.00481952464567838,0.00811779970397125,0.00577852038611137,-3.72245581958814e-05
0.00453587526814879,0.0156005192979182,0.00363391927281789,-0.000312916894078096
0.00516522953431142,0.0190138190279412,0.000396999681776165,-0.00155769767366697
0.0061044682439061,0.0192710481075124,-0.00235193277591097,-0.00335754489650125
0.00457698503859219,0.0186332912150271,-0.00259409927837203,-0.00421480111769969
-0.000358274972983855,0.0160165935945826,-0.00142868069201454,-0.00343235904986333
-0.00524945054141735,0.0128228857635863,0.00026317845937151,-0.00169620626494549
-0.00755088272777445,0.0116466276016852,0.00320722311162901,0.000188119312469943
-0.00867596677690173,0.0119678644332676,0.0034172446222163,0.00144282551979481
-0.0105871420409261,0.0125405226649353,3.20190850118035e-05,0.00105660784753138
-0.0106408959569575,0.0112369248566161,-0.00203430869068739,-0.000969146504336001
-0.00585365103462918,0.00807077610492278,-0.00172878011791981,-0.00309221051559894
0.000767308092798874,0.00480334747217427,-0.000537552256968203,-0.0039276251449453
0.00519099204537212,-0.00117664820085561,0.00131394213173581,-0.00332858535186103
0.00755618708133178,-0.0103085202804753,0.00716411208584899,-0.00185085073749904
0.0102272762698869,-0.0200639782719948,0.013896336411685,-0.000278288324029432
0.0122960060360395,-0.0284989649699862,0.0149637910075333,0.000854525627554469
0.0124665121680636,-0.0333797345579257,0.0133218991726527,0.00173590504843048
0.0109806273087463,-0.0360512620526776,0.0131988980674807,0.00242603233665568
0.00723420685873007,-0.0373625218503946,0.0142250603114167,0.00229678335885289
0.00262407841774174,-0.0326546718370388,0.0137404967595057,0.00117156283500214
0.00180325618832939,-0.0204742680201499,0.0112607308450004,-7.84092677954523e-05
0.00519466806373065,-0.00904712338317959,0.00924216469733304,-0.000871054812036253
0.00737442807994687,-0.0050312658959075,0.00606698578053029,-0.00155709341015265
0.00678681647539916,-0.00624843680775102,0.000619530719443151,-0.00241041119723341
0.00263819093453133,-0.00768115763122412,-0.00397542401514027,-0.00319372934987118
-0.00435639125880469,-0.00440256808308227,-0.00607579429337037,-0.00371778311223149
-0.00853103840040301,0.000103640193874719,-0.00495077961374064,-0.00390984379946071
-0.0110712885267461,-0.00407552157214098,-0.00246850440819804,-0.00330225718411654
-0.0136109983124362,-0.0090574574297829,-0.00180905013962905,-0.00182105879820507
-0.012168285442844,-0.000587202060985253,-0.000691375189515784,0.00011545010014408
-0.00651602138686893,0.011014513760557,0.00200311538220814,0.00237970672467912
-0.000658632583088303,0.010985218381933,0.00111816400763594,0.00446207096211248
0.00326790881286382,0.00551722479007151,-0.00119414805013321,0.00525191901955923
0.00537721415371593,0.00174648281846213,-0.000531629154873914,0.0042286210813581
0.00624224866091672,-0.00256264976611878,-6.89983437617021e-05,0.00206541287721233
0.00710556925873346,-0.00537636454066344,0.000213441701379258,-7.19296443245539e-06
0.00877562621354211,-0.00239380458520604,0.00134733059292219,-0.0011577139042775
0.0109896340655685,0.00320836539357302,0.00152776779340136,-0.00138907680206392
0.0111209827450405,0.00487283360022168,0.000230294031874319,-0.00125131194751734
0.00698796656038156,0.0025492096892497,-0.000877944244066118,-0.00108801736815165
0.000388733771420016,0.00120820463118981,0.00106964026682371,-0.000601436723493221
-0.0044770429335446,-0.000863870847840544,0.00326963375098814,0.000601283686414219
-0.00515384165390104,-0.00728599928931243,0.0022354673832334,0.00225740101466373
-0.0027835091096645,-0.0115656263544174,-0.00108739232509966,0.00297898536817434
0.00110832340958045,-0.00941210252172901,-0.00373811147011848,0.0017152071746687
0.00636671413071664,-0.0110369663002572,-0.00554827100819681,-0.000319492624046999
0.0109994139221445,-0.0247789046549018,-0.0119201143348963,-0.00155590530665982
0.0119353660575969,-0.0417910215718122,-0.0208234643076308,-0.00219559676241592
0.00686365608065107,-0.04614172807877,-0.024871740613741,-0.0025894125563656
-0.0037652866249697,-0.0349198377794501,-0.0233918207648016,-0.00236468048799763
-0.0129913693587047,-0.0217843061869157,-0.0178022095488302,-0.00118097923058407
-0.0143025217396628,-0.0149370302003813,-0.00998725497430698,0.00096804314457984
-0.00827590111529604,-0.00840209461226269,-0.0048526669353434,0.00359444471267937
0.000192463648036195,0.00658558244634008,-0.000930329943676388,0.00601825643023476
0.00673282389589984,0.0255281588055899,0.00369108986737589,0.00727520214889249
0.0101952504914194,0.0337698229350634,0.005088878298248,0.00686444173717048
0.0101028909994227,0.0249707354532016,0.00276577708475191,0.00542826636782076
0.00769775810447382,0.00324929254589053,-0.00100886187170603,0.00345320309407204
0.0054162106388602,-0.0177910633776778,-0.00342219488817013,0.000750232510046873
0.00467754459101064,-0.02565762695041,-0.00226998327688051,-0.00234563802554844
0.00223505409898884,-0.0198511367753443,-0.000803895535105666,-0.00472622534036289
-0.00517946104939521,-3.91342435451109e-05,-0.0024597736795704,-0.00597507172800748
-0.0118363287120063,0.0236147748952367,-0.00612069749624312,-0.00631016768689088
-0.0127962313608766,0.0284204778894654,-0.0108223069017227,-0.00600033791339151
-0.0108236969799155,0.0149361446783075,-0.0152321346044364,-0.00550661854980893
-0.00843020371317165,-0.00240771567192552,-0.0175316712272624,-0.00470866324706988
-0.0021011327474626,-0.0156653428333998,-0.0160765057514618,-0.00338233253699671
0.00606122182520924,-0.0199266742255852,-0.0120174062092808,-0.00191580583563552
0.00656108917800707,-0.0194047552003148,-0.0089727009368498,-0.000566530860235888
-0.0014765337301875,-0.0218910506777268,-0.00985670809399681,0.000392916504490586
-0.0105405684289799,-0.0259423661965229,-0.0122127499359296,0.00064990594890406
-0.0129486908815862,-0.0271936119482151,-0.0124512002753641,0.000862871780728962
-0.0060990674394811,-0.0314332443154562,-0.0128493855603047,0.00209341820578568
0.00462874826730869,-0.0403741363958297,-0.0136922887418453,0.00409015434320497
0.012707624288676,-0.0399209935909552,-0.0112011003544028,0.00565908640532995
0.0136963695831563,-0.0252795565494705,-0.00471493562616168,0.00649867221833401
0.00608582472375061,-0.00825296239264391,6.01403146953117e-05,0.00678010295428886
-0.0075928305579331,0.0018685238709057,-0.000124051490940398,0.00620492356425144
-0.0193760414734701,0.00501547322703067,-0.00220649343828985,0.00470016909573365
-0.0212524379737195,0.00699177382934085,-0.00248263367279556,0.00236140741683881
-0.0182437555348785,0.0100486072665153,-0.000321539050674549,-0.000603560569055427
-0.0153781198093502,0.0129506522860058,0.00100210148079953,-0.00340237848583799
-0.0115694129971677,0.0186557434013768,0.00156351875801626,-0.00524553614817544
-0.0084661143847867,0.0296103612070959,0.00438347467623065,-0.0060873751661399
-0.00530369772111997,0.0413739846412624,0.0090503656545995,-0.00641701956288438
0.000483670733020036,0.0429027990153104,0.0121012391896951,-0.006546996681395
0.00723966968700927,0.031056338221576,0.0103461781629809,-0.00607966775981059
0.00777575879036628,0.0171234883369536,0.0050350855376447,-0.00445683754440827
-3.68985614741836e-05,0.0079072708556116,0.000872833754457602,-0.00173584193531577
-0.0113941609601768,0.00263208638599525,-0.00184983678850445,0.00126282655762261
-0.0232954278298225,0.000307826311434223,-0.00501453218224092,0.00321543124612998
-0.0291592806158032,0.000269189265258669,-0.00466884266825555,0.0037362141627075
-0.0247668866557064,0.00321888466292404,-0.000202811740994881,0.00369056238068349
-0.0175072308813991,0.00920609411242105,0.00317784496967669,0.00376727170546105
-0.014244716018036,0.0196089418100151,0.00380463313523716,0.00393169801717463
-0.0140706832619787,0.0323994581930925,0.0033217162214626,0.0037530975963058
-0.0151082432335868,0.0380573216055951,0.00313634207675501,0.00289634062930432
-0.0159377125396973,0.0362727995117736,0.0048820921278146,0.000987497364251246
-0.0150730587342936,0.0338185418969652,0.00802438886084442,-0.00188115498484352
-0.013053833993491,0.0318469396721964,0.00957591264055303,-0.00422776377951904
-0.0121012265273381,0.031908277202557,0.0109790199816252,-0.00481215909422702
-0.0142472929334363,0.0352334432869736,0.0145317970218987,-0.0042441913399201
-0.0173493320219361,0.037817008223167,0.0196745054580043,-0.00344964004681114
-0.0184373809760527,0.0307490021831621,0.0240354918103114,-0.00242810165137919
-0.0198749260258912,0.0143443462030947,0.0254153427177004,-0.000941333653993646
-0.0227722407207141,0.00316600861760818,0.0274820488244834,0.00140930029428795
-0.0216496846295722,0.0034787952374706,0.0284211621735656,0.00574179867631923
-0.0128212504863343,0.00709785120766192,0.0179881696662097,0.0122259966948823
0.00348227026340155,0.00554984847234177,-0.00472703128399344,0.0166202246821051
0.0210165213310338,0.000210784676390155,-0.026962059210497,0.0131597784159101
0.0275679042951393,-0.0008463505426699,-0.0344446795638109,0.00231553013289823
0.0191358527144261,0.00569396367075047,-0.0267736194756752,-0.00915125423552164
0.00404781607940691,0.0190331724215901,-0.0124977854667969,-0.0153007149466368
-0.00754079524508132,0.0341129979668348,0.00124547431114432,-0.014935188592048
-0.0112453610960442,0.0395047019017954,0.0091601909997041,-0.0104244085373184
-0.00753751619365465,0.033299422864271,0.0108243016811857,-0.00525170903867397
-0.0013995234080773,0.0285626707777363,0.0100946743058067,-0.00141554571819734
0.000913732486205285,0.0304853559631711,0.0100374377374924,0.00124801367415725
-0.00109417447398713,0.0312959993799206,0.0108749097379101,0.00347639240320545
-0.0020653563305023,0.0232844116495719,0.0110340332501993,0.00575098825963287
0.000339067987531576,0.0057939983325542,0.00814584748250267,0.00797405048069264
0.00476879686402962,-0.0142226508952956,0.00301198293796522,0.00919717084230485
0.00930374776019445,-0.0293700963182469,-0.00137617515897313,0.00880763164210989
0.008724427872724,-0.0342531409097648,-0.00513123256654623,0.00710696102458701
0.00307672071077435,-0.0293795868362652,-0.00711174680583756,0.00431891866957328
-0.00247711397498153,-0.0208987192093207,-0.00485844281282625,0.00106108504513864
-0.00563608388194633,-0.0109505885419401,-0.00268295645366311,-0.00141802072591579
-0.00498013087806111,0.00387280787733069,-0.00410713983372042,-0.00273783787905682
8.20040576956626e-06,0.0224249093977498,-0.00465325538392569,-0.00313025748529825
0.00761713371506036,0.035789893515838,-0.00157528247759691,-0.00276808081746219
0.0157149469177621,0.0365537085422624,0.00114699563481688,-0.00211776582365914
0.0213514116689025,0.0263637097352445,-0.0013524873546709,-0.0013287211644932
0.0205741328194404,0.0128609987136488,-0.0103280556196779,-0.000633878814613444
0.0162164072556209,0.00312065568126571,-0.0186934681822475,-0.00116828313607753
0.014682855756363,-0.000693703081601656,-0.0196470356100989,-0.00311964859505711
0.0161636585975518,-0.00514647514499315,-0.0179621416676695,-0.00435068820851966
0.0198720297107197,-0.0179853526447445,-0.0178004360691195,-0.0025554181963769
0.0258728669104159,-0.0332903181226862,-0.0180658560744403,0.00182552547371022
0.0292289976414578,-0.0396338659991548,-0.0164256777923132,0.00628799966178081
0.0278494824516371,-0.0361475562570514,-0.0113130614849856,0.0089967917857563
0.0250479201926076,-0.0258980794425429,-0.00789650444418395,0.00946126242101402
0.0187415696453569,-0.015882779264356,-0.00951482014650646,0.00781900483754514
0.0100932908999348,-0.0142293655944624,-0.0118483834752353,0.00467191727753244
0.00531707666470845,-0.0165157090938652,-0.0116233293045688,0.0010029200474624
0.0027614810148135,-0.0176520452739356,-0.00840083236674183,-0.00229517831812846
0.000206233908132782,-0.0254721151720173,-0.00463408795965857,-0.00498301400729596
-0.000174847170862224,-0.0434733419403253,-0.00295881325687008,-0.00721617971248443
0.0011076036738829,-0.0562006026872832,-0.00139292707958343,-0.00814985483838178
0.000639166581080168,-0.0495974669919532,0.000514737279263871,-0.00653791521912093
-0.00164686322457327,-0.0266085156097721,0.00144511517249352,-0.00307281552680846
-0.00340016098009892,0.00191026430412997,0.00346020021224541,-0.000228267747113626
-0.00518212759480699,0.024725357126561,0.00660710288453804,0.000729878596481072
-0.00524760154158954,0.0340144210648126,0.00817267922456825,0.000805022933142013
-0.00235979103905126,0.0274321173670626,0.00749826881867279,0.000871474443122809
-0.000777561581624453,0.0121894000146796,0.00582310576376629,0.000655221046089518
0.000180358810549803,-0.00392332405171195,0.00324852853559053,-7.57065802954914e-05
0.00225569126118842,-0.0195260198044726,0.00233161345764441,-0.000849474408027551
0.000700741017001055,-0.0309555531458541,0.00887838396464607,-0.000698478517726363
-0.0046939551594084,-0.0361457864742693,0.0199195065692201,0.00131470933041357
-0.00909277665168881,-0.0356685725647122,0.0249734906395188,0.00562737179303556
-0.00976232128765337,-0.0294653605106739,0.0223157776025111,0.0112744990820645
-0.0053719490258277,-0.0200661511241452,0.0180520748866856,0.015307954315436
0.00163723295773706,-0.0112290377857453,0.0103365265989658,0.014201948982069
0.00743382814875246,-0.00546159253809349,-0.000401673970021409,0.00671074947273685
0.00855156304865995,-0.00528178875005215,-0.00379004795813824,-0.00416487107491386
0.00349781715560353,-0.0121356749146383,0.000411567065562994,-0.0130322515348626
-0.00259907938230372,-0.0232950587482354,0.00376456450381891,-0.0165318847362316
-0.00644401458834355,-0.0346443885483575,0.00426846986370399,-0.01518619655452
-0.00861699378805024,-0.0458411853990387,0.00485634153788645,-0.0113167628292241
-0.00790167353722294,-0.0556544014808423,0.0046572054189875,-0.00671282332371482
-0.00339058787863812,-0.0583988159642691,0.00306131591462841,-0.00237555620876431
0.00192375369335709,-0.053312490847396,0.00300211024163135,0.000767208632162227
0.00539610252875403,-0.043703455347118,0.00387503987035757,0.00187618779855588
0.00718978057177414,-0.0318937013490332,0.00409627312932885,0.00110519686639107
0.00738978619034114,-0.0228036647241132,0.00344954628491508,0.000164723178140669
0.0066438286054491,-0.0190893681517158,0.00268716835769647,0.0011616528855462
0.00196879811058791,-0.0123182228991477,0.00365001693454015,0.00394509554543861
-0.00907301812780902,0.0150795944380727,0.00985410728805498,0.00630916949129742
-0.019409387562365,0.0563036667391272,0.021905678823342,0.00740626854571164
-0.0191730753482695,0.0737840836368806,0.0291744351375319,0.00829173725924984
-0.0104333375913735,0.0564638220782504,0.0239711216357392,0.00911175473500513
-0.00358012477120578,0.0284917260549788,0.013066089412467,0.00846301115164345
-0.00116765812307238,0.0125348484320347,0.00561096626371978,0.00579693296341374
-0.00119689161663656,0.0124417572773708,0.00187992181515621,0.00190123258095887
-0.00188241705032438,0.0144156431743751,-0.00270875726668053,-0.00243488562093014
-5.47380932354076e-05,0.0114270213773811,-0.00614816530491767,-0.00628898949123153
0.00314532746537387,0.00720900257163988,-0.00612277141389192,-0.00901486732881539
0.00476514393351532,0.00201853704535272,-0.00639079969878968,-0.010876193498056
0.00644962112945198,-0.00185167490520636,-0.00823952998989737,-0.012498790138313
0.0105880100003108,0.00114739688365215,-0.0084094370066902,-0.0139520770807818
0.0143876847528258,0.00859826848435676,-0.00401084929290991,-0.0137581219081033
0.0157760179037403,0.014874304326626,0.00375176317555784,-0.0101941565059555
0.0173124780386762,0.0150018211140071,0.0104089141787881,-0.00372709439955372
0.0144684297814059,0.00610485540215493,0.0105775774995116,0.00288321462396352
0.000859404341247989,0.00148210555414211,0.00448578269501453,0.00669859090590142
-0.0165450979647722,0.0113270416523512,-0.00229568736641102,0.00676867228238859
-0.0225713440973397,0.0219083414245538,-0.00560867554281926,0.00456687470171794
-0.0122106705400813,0.0206114284063363,-0.00579939098562193,0.00222757631554948
0.00190438272564744,0.0155093700239761,-0.00522711363761091,0.000571652934420166
0.00899250638769157,0.0140480501999684,-0.00308810498160258,-0.000695573685261965
0.0120008374658665,0.0105618635093928,-0.000739494173025576,-0.00198961450241226
0.015359678856342,0.00315411104706713,-0.000443920023301704,-0.00316724131617118
0.0159106806814785,-0.00353671515477177,-0.00185049565104658,-0.00367576820783992
0.00832347535634569,-0.00424353135942155,-0.00315769159673277,-0.00363569239931162
-0.00271218232678288,0.0025541445562985,-0.00242896165691864,-0.00388227038709766
-0.00840716555363427,0.012731419648427,-0.0010998134806613,-0.0046874809413086
-0.00967086194890089,0.0207532496476376,-3.47258604384349e-05,-0.00517074318774629
-0.0114961222181453,0.0251183471775117,0.000898517894495637,-0.00475557354727479
-0.0132158712236072,0.0268044835128898,0.0012651662124074,-0.0038924069066947
-0.0114321512081891,0.0252517041142209,0.00195406503301301,-0.00293168523385154
-0.00661128038744822,0.0212977031207013,0.00224624608842162,-0.00184147935726927
-0.00168399021588598,0.0161560825595728,0.00149417031724404,-0.000679439768025678
0.00090396107818871,0.0117806301195688,0.00178812643615363,0.000207644299973517
0.00169354036008842,0.00963653165649928,0.00233932285684361,0.000794128913059773
0.00319835862651425,0.00537301512705995,0.00277648635288722,0.00144065419134662
0.00519409598916803,-0.000924461345576231,0.00478387627074647,0.00199479191718326
0.00566829663433004,-0.00585725565679709,0.00578503727599091,0.00218291212338646
0.00227878726167035,-0.0105220596576158,0.00476888927061078,0.00218290210503745
-0.0032526912949071,-0.0124905088167919,0.00477754032574379,0.00208571795490019
-0.00430069984168942,-0.0129371521036424,0.00553132109498057,0.00189574645877151
-0.00131407017271405,-0.0163864164118452,0.00481750496732096,0.00186975159626561
0.0016405727946821,-0.0207502412418378,0.00406074408166365,0.00198499490239638
0.00563692954903275,-0.0225485894739013,0.00380396820647625,0.00201181900169282
0.00860419619736586,-0.0211374156608608,0.00237772237720387,0.00204234503632383
0.00601081908640833,-0.0185133113242536,0.000709525537338397,0.00218694655997711
-0.00146771048508538,-0.0165423080994042,0.000915623645493715,0.00232258330487871
-0.00753901440834177,-0.0152046376147834,0.00148699453912709,0.00217480692206337
-0.007241970937062,-0.013222383807065,0.00101151059472458,0.00179577411767008
-0.00391978500904823,-0.00685153472415256,0.00329828867202943,0.00166650558927386
-0.00188246344673522,0.00460001089321968,0.00761568818415975,0.00221978908518465
0.00106978843146097,0.0119119864277011,0.00897569560828019,0.00341187374574197
0.00442038495159064,0.00799541295863754,0.00660319092784648,0.00462706520277981
0.00438034338695631,-0.00127572438414371,0.00143159013747003,0.00501397617830221
0.00238891735470776,-0.00520116943997418,-0.00273504407436673,0.00404807056919471
0.0017916566608157,-0.00296963901651704,-0.00374412239450566,0.0024190225979905
0.00385547064191778,-0.00501518297192235,-0.00656617903667914,0.00140849729919044
0.0073845063510852,-0.0165382193915163,-0.0123979353215313,0.00131549038801952
0.00992654899387892,-0.0297392322656115,-0.0148564129529072,0.00152693726183889
0.0104899111299632,-0.0323504189048129,-0.0113502255813599,0.00141630735255249
0.0104774803924335,-0.0224146222555976,-0.00697967815954418,0.00118388495745018
0.0102316255447324,-0.00891122211089868,-0.00610097371396556,0.00175636803016922
0.00941251537217049,-0.00200344691642968,-0.00723272895399951,0.0036210376224787
0.00738608526495056,-0.00716141806306301,-0.00787503879150324,0.00566410627991278
0.0056938520190933,-0.0106559880115304,-0.00525161776373695,0.00602872796933629
0.00764103261143232,0.00511292629052078,0.00167914269025119,0.00474775161854922
0.00889711168249113,0.0278420540390345,0.00556515453981434,0.00324476453072683
-0.00360261053548274,0.0393623261971897,0.00477887373515377,0.00186405194015219
-0.0292165575531597,0.0438128551261662,0.00546646086810739,7.70722439623151e-05
-0.0400746939753189,0.0409953444786913,0.00347302391817716,-0.00192477070035537
-0.0250569661673704,0.0247764441827361,-0.00373345639992622,-0.00335547547245233
-0.00407155862734668,0.00625615777001416,-0.00945779691864466,-0.00367438409078233
0.01556275348878,-0.00324539699933599,-0.0109938654819242,-0.00287180438108066
0.0400156324860798,-0.00590165495790919,-0.0109781262010038,-0.0015788711329745
0.0564431493537584,-0.0112376298137025,-0.0118704419908118,-0.000491349007351807
0.0475265905880245,-0.0269706499449219,-0.0121046154759674,6.36736749259816e-06
0.025432955603465,-0.0483304369404325,-0.00959692065738362,-4.38130114642564e-05
0.00975073044662896,-0.0614246692148073,-0.00577494741440017,-0.000143982197009587
0.00262045200678038,-0.0574775609942356,-0.00310911945395306,-0.000266168780868704
-4.31877841166571e-05,-0.0415915825853357,-0.00310940765208848,-0.000875223482763759
-0.000993412149036779,-0.0237939662904697,-0.00402008376835425,-0.00180037297714994
-1.34465826808101e-06,-0.0115972853971016,-0.00413997218586027,-0.00248852977876301
0.000447875249176664,-0.00807795158508692,-0.0051940960772231,-0.00290461534250012
-0.00339324195754443,-0.00775755145899707,-0.00793053927354603,-0.00342084460269102
-0.00780386666269506,-0.00606393737983209,-0.012114231957753,-0.00411333276472779
-0.0116989144241519,-0.000280938309668508,-0.0145652615522001,-0.00473320998252828
-0.016102504376454,0.0124586807682484,-0.0102544632235164,-0.00511574810611516
-0.013669386761645,0.0225532153017455,-0.0019089260413174,-0.00501586309172948
-0.00705405021241703,0.0243957063459729,0.00385107902075697,-0.00414182345466863
-0.00889560807954863,0.0241078746805908,0.00655917769027809,-0.00251523458995488
-0.0141941931507051,0.0207616749884776,0.00806953410801616,-0.000659047224691931
-0.0127091923086484,0.0150200435025687,0.0075201476625737,0.000712873200724773
-0.00642857034199017,0.0114967144346803,0.00496305856920909,0.00126244924612185
-0.000173088207073721,0.00917836627199817,0.00298653410902406,0.00100794747568973
0.00452557875137494,0.00345746923290483,0.00164183009474279,0.000334813908615953
0.00697049387467548,-0.00493795631188912,-0.000624843828687766,-0.000321747191152568
0.00578250453664337,-0.0103682617096406,-0.0022187081373955,-0.000909830483598359
0.00269550907797026,-0.0137181360410297,-0.00179351649457196,-0.00140897548855627
-0.000932263011621394,-0.0150017350012362,-0.000946949415509179,-0.00175261679141813
-0.00461849966322645,-0.0103660489428997,0.00160223464507477,-0.00180324095084609
-0.00581476085356929,-0.00110124081138559,0.00583111167265877,-0.00145816235018006
-0.00548556672918733,0.00685426584469181,0.00668591507099021,-0.000976412331868831
-0.00505367582442501,0.00801027205069588,0.00523142713221769,-0.000573483238441404
-0.00501145880711982,0.00486392641994662,0.00527879801699148,-0.000370365114079921
-0.00680933360051973,0.00328457357740869,0.00664427015937949,-0.000468056103202566
-0.00956273991290606,0.00415723279110077,0.00785334686092541,-0.000633207320672562
-0.0116226108927068,0.00673552519766293,0.00719022691517228,-0.00067208370356588
-0.0119842506262872,0.00902608998942636,0.00501262537663637,-0.000725024071485977
-0.0122757396997626,0.00773492617516905,0.0030984193036063,-0.000992423937585959
-0.0135587619834742,0.00658541412508532,0.00147351766633653,-0.00134499733749704
-0.0136018767361926,0.0138045897128764,-9.97939692978924e-05,-0.00141604744483923
-0.0125741128041637,0.02686898149266,-0.00141133982043368,-0.00111602386641845
-0.0120649136430877,0.0369107784853146,-0.00224604463649147,-0.000661554573980616
-0.0114211606556204,0.0435132988405827,-0.00274396990108845,-0.00019593442383681
-0.0107587265056243,0.0475408110134045,-0.00229250894246879,0.00037681387855567
-0.00814363398082264,0.0441349179023307,-0.000980853491472885,0.00105074263124112
-0.00210108005324538,0.0360354463305333,-0.000890241339936947,0.00154093112365258
0.00374020746456098,0.0296122244216734,-0.00184318190920781,0.00170984389695834
0.00753163398721494,0.0236731167428531,-0.000798480456466105,0.00165807358190896
0.00734850776662299,0.0146139582716988,0.0028180929040206,0.00153686258006135
0.00401742975002185,-0.00144916274212718,0.00456891083941375,0.00168285664602268
0.00239409458429088,-0.0209469842294111,0.00413434929898532,0.00195619782317661
0.00208428623730596,-0.0330939694755157,0.0039085686706237,0.00179492597421068
-0.00116841891254767,-0.0279111761415141,0.00375909155851326,0.00129529244003742
-0.00787027530492293,-0.000436610283518726,0.00476203268147892,0.000860334905964937
-0.0138504898303111,0.0282862561011495,0.00654278027366954,0.000728429631619592
-0.0162575394312613,0.0303527247786372,0.00621007503052675,0.000877456255186397
-0.0139373048540643,0.0123226154841608,0.00206585194329922,0.000894434072869306
-0.00878946602391582,-0.00741160694505545,-0.00399448830879585,0.000472072961166843
-0.00350323940632449,-0.0207513251945975,-0.00806294743533102,-0.000332791090311541
0.00272449150665876,-0.0236095553675456,-0.00943579495232127,-0.00107052051044627
0.00766293873671374,-0.0160562770898494,-0.00901402556701823,-0.00125840386615928
0.00625369386611427,-0.006161749952662,-0.0080294637432416,-0.00105787303014609
0.00169146507615787,-0.00357495933516251,-0.0075910924940948,-0.000624463496550203
0.00270173994558701,-0.00624263496854971,-0.00641279942678112,9.01069477352342e-05
0.012098892149439,-0.00888059356996951,-0.00578507152037952,0.000884544189710407
0.0244748831950641,-0.0122369258023685,-0.00675248797248874,0.00164444242163228
0.0356997840622962,-0.0116390249893202,-0.00608975042572603,0.00223681696936641
0.0485404219998595,-0.000745395634867113,-0.00242323070909826,0.00246281012299298
0.0509447792836209,0.0143375346218709,0.00354352915016684,0.00241180862332631
0.0241362690831991,0.0241876631335504,0.0102286084244277,0.00233931205930176
-0.0188268234510919,0.025571494716854,0.0148442521818103,0.00225130224626478
-0.0471535318044755,0.0205164401399685,0.0163255982495726,0.00179350481949779
-0.0449628582297982,0.010681824330384,0.0146329128226747,0.000623088613711633
-0.0214954852679453,-0.00172698765865438,0.0107600091031049,-0.00083030738019242
1.36354850272663e-05,-0.00924496070330266,0.00694866917462351,-0.00163000352975429
0.00995712003970649,-0.00821958942061244,0.00438957491077423,-0.0015326322049182
0.0112488088115417,-0.00474335852385395,0.00250375096626611,-0.000849227924331818
0.00823105626043898,-0.00382550849951381,0.000660138282380523,8.66653638265679e-05
0.00580178791757179,-0.00391767438260661,-0.000512610312403169,0.00092159486889913
0.00412028195533532,-0.00392109989444504,-0.000151141801369463,0.00137616859192812
0.00252138724309676,-0.00408419841737828,0.000533112386445464,0.00131584688245061
0.00218199339737148,-0.00402680416744045,0.000381872108723265,0.000956833864431959
0.00200046809008102,-0.00308713161729975,-9.5445131085687e-05,0.00071028305061977
0.00141213939906836,-0.0021427472336885,-0.000204969311849684,0.000617173867830497
0.000383725649481784,-0.00429347595233112,0.000950172868719103,0.000507769207370946
0.00038294259802488,-0.010250105651538,0.00292281143887987,0.000538013152400135
0.00419689047237281,-0.0125051330542409,0.00372967063570338,0.000791057859089098
0.00823760348089519,-0.00579142491443091,0.00299322814225973,0.0010396741619797
0.00949717086757015,0.00353477870323678,0.00191155324574379,0.00118532414852086
0.00895428692020833,0.00985684881928226,0.00151507803212207,0.00128004799647289
0.0062098670617472,0.0154463766829038,0.00224135426731795,0.00143490110419551
0.00328792206226862,0.0290124635166211,0.00182858174145691,0.00163852755266694
0.00216344193587533,0.0494520405640748,0.000434176749203375,0.00154279467073347
0.00144660597843082,0.0611193453394096,0.000202823520444944,0.000957878591506133
0.00016575466017856,0.0587008700016053,-0.00168699109241453,0.000111599698789276
-0.000990990628309583,0.0473279620816396,-0.00571845241223854,-0.000742532045029496
-0.000421529345136919,0.0288386335642572,-0.00748547150414713,-0.00146202496708131
0.000653153839167962,0.00950670663871501,-0.00683433028851733,-0.0019424080289288
0.000134419485252521,-0.00203313495392926,-0.00626922436271362,-0.00200619090270708
-0.00148445267880837,-0.0079080356533504,-0.00571468175597174,-0.00175151675592121
-0.00286776879669488,-0.0162007826490697,-0.00473061393266464,-0.00160507513936622
-0.000911152129572239,-0.0339874085289424,-0.00232836852077293,-0.00155255017427417
0.00337030674733653,-0.0576022835335265,0.00136094882528472,-0.00127596136848381
0.00403581121734638,-0.0679139602694478,0.00400321848042162,-0.000654439369629259
-0.000126243494758274,-0.0523121415981612,0.00604555433928243,0.000361899062160236
-0.00506187906516418,-0.0228429115632313,0.00678405866963285,0.00159611008987183
-0.00786956179030219,0.00283666234338499,0.00375847249877017,0.00242141240818697
-0.00897712645386864,0.0188774141482838,-0.000546508354524162,0.00235745066599621
-0.010147202558752,0.0231423833810968,-0.00226429568798266,0.00174621480919519
-0.00949969882789652,0.0172779725627265,-0.00174862050770008,0.00111408622842714
-0.00252238428180221,0.00661204628806225,-0.00371637160274351,0.000608437622326053
0.0087310244157008,-0.00389836855414277,-0.00944969883305623,0.000472676294776846
0.0162398181586692,-0.0094042707557475,-0.0126309597562441,0.000793327293727426
0.0183634323624097,-0.0095754423288107,-0.0106782721995163,0.00104593475739058
0.0189528829386169,-0.00829531618648672,-0.0086297667977753,0.000648083351330232
0.0197240726847679,-0.00636972967636864,-0.00753391310601996,-0.000210227401341394
0.0187649209999526,-0.00342587956131235,-0.00342690212806022,-0.000773150680634715
0.00883735396008459,0.00117521692461476,0.00301421806129917,-0.000775129297793654
-0.00552819628670382,0.0100101754371925,0.00777711227651865,-0.000346685758059294
-0.0119044918693267,0.0223146910200756,0.00993390532855726,0.000299471103224109
-0.0108041123251734,0.0276913420343386,0.00923645576237236,0.000471754662719082
-0.00754727092836149,0.0102858246274864,0.00458128750197054,-0.000142304380484418
-0.00678107461181828,-0.0266023475310149,-0.00274679703525816,-0.000894703622186211
-0.00687702669183745,-0.0545169673896777,-0.00866620575869357,-0.00145520386706127
-0.00160432769756773,-0.0584868681542375,-0.0097662188226472,-0.00187070319875021
0.00837147091573901,-0.0563137370606719,-0.00948552354120691,-0.00181903432101359
0.0169946909952939,-0.0581647791164843,-0.01243556558674,-0.0012241020878317
0.0209816402741569,-0.0540094359594852,-0.0143441000994245,-0.000412931505870296
0.0209460925588232,-0.0455698440143714,-0.0106990290826455,0.000376224703949705
0.01728580541084,-0.0433661730077137,-0.00552911762802666,0.00117886058246758
0.0130466073458225,-0.0458193971790321,-0.0016961277205325,0.00202286778374633
0.00455299852220798,-0.0341291118142963,0.00550729188093418,0.0027319142111676
-0.00862936524698951,0.00644707280764933,0.01576653627567,0.00349175029707232
